D:\MassHunter\GCMS\1\data\ACB PhD\Calibration\20240912\11.D 12 Sep 24  11:26 am
Start of data points
2.0965 	 52992
2.1009 	 53546
2.10532 	 52946
2.10973 	 52619
2.11417 	 52347
2.1191 	 52646
2.12403 	 51743
2.12897 	 50874
2.1339 	 50875
2.13882 	 49624
2.14377 	 50372
2.1487 	 50907
2.15363 	 49593
2.15857 	 51119
2.16348 	 51429
2.16843 	 49552
2.17337 	 49273
2.1783 	 50790
2.18323 	 50981
2.18815 	 51676
2.1931 	 50780
2.19803 	 51090
2.20297 	 52551
2.2079 	 52189
2.21282 	 51541
2.21777 	 50375
2.2227 	 51820
2.22763 	 52649
2.23257 	 53141
2.2375 	 52224
2.24243 	 53073
2.24737 	 52721
2.2523 	 52961
2.25723 	 54445
2.26217 	 52652
2.2671 	 52179
2.27203 	 52100
2.27697 	 52106
2.2819 	 51783
2.28683 	 51840
2.29177 	 50197
2.2967 	 49800
2.30163 	 48722
2.30657 	 49585
2.3115 	 49366
2.31645 	 49104
2.32138 	 48727
2.3263 	 48010
2.33123 	 47784
2.33617 	 48212
2.34112 	 49709
2.34605 	 47168
2.35098 	 46554
2.35592 	 47105
2.36083 	 46897
2.36578 	 46200
2.37072 	 46194
2.37565 	 45517
2.38058 	 45013
2.3855 	 46106
2.39045 	 44919
2.39538 	 44553
2.40032 	 45883
2.40525 	 45745
2.41017 	 45382
2.41512 	 45738
2.42005 	 44901
2.42498 	 45839
2.42992 	 45325
2.43485 	 44106
2.43978 	 44860
2.44472 	 43926
2.44965 	 43669
2.45458 	 43516
2.45952 	 44469
2.46445 	 43382
2.46938 	 42298
2.47432 	 42483
2.47925 	 43340
2.48418 	 44553
2.48913 	 44991
2.49407 	 44187
2.499 	 44802
2.50392 	 45461
2.50885 	 44404
2.5138 	 43577
2.51873 	 42485
2.52367 	 42100
2.5286 	 42541
2.53353 	 41604
2.53847 	 42814
2.5434 	 44207
2.54833 	 43630
2.55327 	 42210
2.5582 	 42071
2.56313 	 41644
2.56807 	 42512
2.57302 	 43381
2.57793 	 41896
2.58287 	 40602
2.58782 	 41486
2.59275 	 40830
2.59768 	 40818
2.60262 	 40928
2.60755 	 42131
2.61248 	 42432
2.61742 	 42128
2.62235 	 42025
2.62728 	 42339
2.63222 	 41156
2.63715 	 40919
2.64208 	 42740
2.64702 	 41473
2.65195 	 42133
2.65688 	 42328
2.66183 	 41069
2.66677 	 41268
2.6717 	 40756
2.67663 	 41713
2.68157 	 41115
2.6865 	 40879
2.69143 	 40533
2.69637 	 40799
2.7013 	 41160
2.70623 	 40928
2.71118 	 40720
2.71612 	 39972
2.72105 	 42107
2.72598 	 42649
2.73092 	 41857
2.73585 	 41516
2.74078 	 40409
2.74572 	 41028
2.75065 	 41480
2.75558 	 42127
2.76052 	 41953
2.76545 	 40520
2.77038 	 41053
2.77532 	 41380
2.78025 	 40536
2.7852 	 39954
2.79013 	 39438
2.79507 	 40504
2.8 	 41119
2.80493 	 40309
2.80987 	 39929
2.8148 	 39709
2.81973 	 40635
2.82467 	 40133
2.8296 	 40571
2.83453 	 40586
2.83947 	 41045
2.8444 	 41092
2.84933 	 40892
2.85427 	 39743
2.85922 	 39719
2.86415 	 39888
2.86908 	 40066
2.87402 	 40265
2.87895 	 40048
2.88388 	 41046
2.88882 	 40534
2.89375 	 40314
2.89868 	 41441
2.90362 	 40154
2.90855 	 40346
2.91348 	 39786
2.91843 	 39717
2.92337 	 40590
2.92828 	 39817
2.93323 	 40180
2.93817 	 38399
2.9431 	 38078
2.94803 	 39765
2.95297 	 40429
2.9579 	 40472
2.96283 	 40017
2.96777 	 40182
2.9727 	 40807
2.97763 	 41072
2.98257 	 40981
2.9875 	 39002
2.99243 	 39343
2.99737 	 40879
3.0023 	 41411
3.00723 	 40267
3.01217 	 41250
3.0171 	 39623
3.02203 	 39390
3.02698 	 39919
3.03192 	 38864
3.03685 	 39725
3.04178 	 40691
3.04672 	 41705
3.05165 	 41313
3.05658 	 41380
3.06152 	 40455
3.06645 	 39369
3.07138 	 38139
3.07632 	 39667
3.08127 	 39565
3.0862 	 38812
3.09113 	 39462
3.09607 	 39080
3.101 	 39390
3.10593 	 39250
3.11087 	 39121
3.1158 	 39478
3.12073 	 38845
3.12567 	 38852
3.1306 	 39502
3.13555 	 39655
3.14048 	 40862
3.1454 	 41001
3.15033 	 39707
3.15527 	 40214
3.1602 	 39504
3.16515 	 39773
3.17008 	 40088
3.17502 	 40347
3.17995 	 39760
3.18488 	 39935
3.18982 	 40217
3.19475 	 39038
3.19968 	 38977
3.20462 	 38493
3.20955 	 38511
3.2145 	 38252
3.21943 	 39058
3.22437 	 37627
3.2293 	 38478
3.23423 	 39306
3.23917 	 39272
3.2441 	 39467
3.24903 	 39837
3.25397 	 39611
3.2589 	 39397
3.26383 	 38472
3.26877 	 38772
3.2737 	 38827
3.27863 	 38363
3.28357 	 39361
3.2885 	 40071
3.29343 	 39836
3.29837 	 38867
3.3033 	 38403
3.30823 	 39742
3.31318 	 39135
3.31812 	 38385
3.32305 	 37695
3.32798 	 37627
3.33292 	 39817
3.33785 	 41302
3.34278 	 40677
3.34772 	 39417
3.35265 	 39471
3.35758 	 39430
3.36252 	 40216
3.36745 	 39636
3.3724 	 38886
3.37732 	 39444
3.38225 	 38388
3.3872 	 38986
3.39213 	 39434
3.39707 	 37903
3.402 	 38529
3.40693 	 37972
3.41187 	 38107
3.41682 	 38861
3.42175 	 38673
3.42668 	 38439
3.4316 	 38671
3.43655 	 38395
3.44148 	 39045
3.44642 	 38822
3.45135 	 39282
3.45628 	 39900
3.46122 	 39732
3.46615 	 39482
3.47108 	 38817
3.47602 	 39234
3.48095 	 38570
3.4859 	 38724
3.49082 	 39307
3.49577 	 38515
3.50068 	 39340
3.50562 	 39025
3.51057 	 40002
3.5155 	 39458
3.52043 	 38592
3.52537 	 38654
3.5303 	 39122
3.53523 	 38456
3.54017 	 38637
3.5451 	 38201
3.55003 	 37634
3.55497 	 37751
3.55992 	 38712
3.56485 	 39250
3.56978 	 39596
3.57472 	 38793
3.57965 	 39082
3.58458 	 39191
3.58952 	 39196
3.59445 	 39350
3.59938 	 38992
3.60432 	 38387
3.60925 	 38102
3.61418 	 39291
3.61913 	 38697
3.62405 	 38775
3.62898 	 38567
3.63392 	 37894
3.63887 	 37534
3.6438 	 37583
3.64873 	 38333
3.65367 	 38842
3.6586 	 37663
3.66353 	 37848
3.66847 	 38135
3.6734 	 38877
3.67833 	 39263
3.68327 	 39488
3.6882 	 39421
3.69313 	 37707
3.69807 	 38374
3.703 	 38145
3.70793 	 37705
3.71287 	 38539
3.71782 	 38962
3.72275 	 39044
3.72768 	 38036
3.73262 	 37713
3.73755 	 38034
3.74248 	 38242
3.74742 	 37778
3.75235 	 38522
3.75728 	 39249
3.76222 	 39182
3.76715 	 39039
3.77208 	 38716
3.77702 	 38377
3.78195 	 36627
3.78688 	 37752
3.79183 	 37740
3.79677 	 38282
3.8017 	 39022
3.80663 	 38799
3.81155 	 39474
3.8165 	 39112
3.82143 	 38799
3.82637 	 38560
3.8313 	 37163
3.83623 	 37725
3.84117 	 38525
3.8461 	 38343
3.85103 	 38120
3.85597 	 38333
3.8609 	 39603
3.86583 	 39386
3.87077 	 38850
3.8757 	 38099
3.88063 	 38820
3.88557 	 38721
3.89052 	 38773
3.89545 	 39005
3.90038 	 38745
3.90532 	 38321
3.91025 	 37776
3.91518 	 37802
3.92012 	 38353
3.92507 	 39098
3.92998 	 38990
3.93492 	 37959
3.93987 	 38744
3.9448 	 38694
3.94973 	 38863
3.95467 	 36877
3.9596 	 37688
3.96453 	 38196
3.96947 	 37779
3.9744 	 37899
3.97933 	 38225
3.98427 	 38510
3.9892 	 38373
3.99413 	 38283
3.99907 	 37648
4.004 	 38290
4.00893 	 37652
4.01388 	 37209
4.01882 	 37402
4.02375 	 37619
4.02868 	 37589
4.03362 	 38659
4.03855 	 38349
4.04348 	 37489
4.04842 	 37997
4.05335 	 38260
4.05828 	 38077
4.06322 	 37537
4.06815 	 37221
4.07308 	 37759
4.07802 	 37860
4.08295 	 37043
4.0879 	 37964
4.09283 	 37851
4.09777 	 37927
4.1027 	 38657
4.10762 	 39298
4.11257 	 38964
4.1175 	 39144
4.12243 	 38650
4.12737 	 38243
4.1323 	 37122
4.13723 	 37892
4.14217 	 38417
4.1471 	 37671
4.15203 	 37718
4.15697 	 38053
4.1619 	 38138
4.16683 	 38274
4.17177 	 38822
4.1767 	 38406
4.18163 	 37747
4.18657 	 38128
4.1915 	 38419
4.19645 	 38903
4.20138 	 38847
4.20632 	 38666
4.21125 	 39125
4.21618 	 38913
4.22112 	 39346
4.22605 	 39167
4.23098 	 37917
4.23592 	 37967
4.24085 	 38182
4.2458 	 37836
4.25073 	 36886
4.25567 	 37516
4.2606 	 38342
4.26553 	 38273
4.27047 	 37870
4.2754 	 37502
4.28033 	 37809
4.28527 	 38601
4.2902 	 37665
4.29513 	 37253
4.30007 	 36676
4.305 	 37580
4.30993 	 38411
4.31487 	 37300
4.3198 	 37509
4.32473 	 38577
4.32967 	 39056
4.3346 	 38231
4.33953 	 37671
4.34448 	 37806
4.34942 	 37829
4.35435 	 38050
4.35928 	 38386
4.36422 	 38170
4.36915 	 37982
4.37408 	 38234
4.37902 	 37213
4.38395 	 37738
4.38888 	 38683
4.39382 	 37845
4.39875 	 37674
4.40368 	 37900
4.40862 	 38665
4.41355 	 39817
4.4185 	 38318
4.42342 	 39257
4.42835 	 39728
4.43328 	 38476
4.43822 	 38234
4.44317 	 38530
4.4481 	 38547
4.45303 	 38868
4.45797 	 38170
4.4629 	 37328
4.46783 	 37649
4.47277 	 39117
4.4777 	 39198
4.48263 	 38842
4.48757 	 37883
4.49252 	 37824
4.49745 	 37636
4.50238 	 38473
4.50732 	 38283
4.51225 	 37284
4.51718 	 38808
4.52212 	 38281
4.52705 	 38564
4.53198 	 39178
4.53692 	 37869
4.54185 	 38363
4.54678 	 39018
4.55173 	 39677
4.55667 	 38874
4.5616 	 38751
4.56653 	 38617
4.57147 	 37893
4.5764 	 37305
4.58133 	 38088
4.58627 	 39029
4.59122 	 38295
4.59615 	 38859
4.60108 	 37440
4.60602 	 38058
4.61095 	 37734
4.61588 	 38541
4.62082 	 38389
4.62575 	 37822
4.63068 	 37531
4.63562 	 37707
4.64055 	 38423
4.64548 	 38512
4.65042 	 38315
4.65535 	 38814
4.6603 	 39056
4.66522 	 39107
4.67015 	 39584
4.6751 	 39686
4.68003 	 38078
4.68497 	 38049
4.6899 	 38059
4.69482 	 38996
4.69977 	 39246
4.7047 	 38886
4.70963 	 39400
4.71457 	 40078
4.7195 	 39435
4.72443 	 39238
4.72937 	 39380
4.7343 	 38240
4.73923 	 37420
4.74417 	 37245
4.74912 	 37629
4.75405 	 38595
4.75898 	 37720
4.76392 	 38568
4.76885 	 37535
4.77378 	 37559
4.77872 	 37506
4.78367 	 38629
4.78858 	 38058
4.79352 	 38790
4.79847 	 37892
4.8034 	 37990
4.80833 	 37613
4.81325 	 37925
4.81818 	 38516
4.82313 	 37733
4.82807 	 38457
4.833 	 38110
4.83793 	 39443
4.84287 	 39645
4.8478 	 38663
4.85273 	 38394
4.85767 	 37137
4.8626 	 37773
4.86753 	 36969
4.87247 	 37181
4.8774 	 38138
4.88233 	 38442
4.88727 	 38539
4.8922 	 38276
4.89713 	 37280
4.90207 	 37118
4.90702 	 37038
4.91195 	 37154
4.91687 	 38799
4.92182 	 38162
4.92675 	 38415
4.93168 	 38368
4.93662 	 38467
4.94155 	 38080
4.94648 	 38509
4.95142 	 38149
4.95635 	 38308
4.96128 	 37453
4.96622 	 37063
4.97115 	 37387
4.9761 	 37034
4.98103 	 37636
4.98597 	 37897
4.9909 	 37133
4.99583 	 38264
5.00077 	 39254
5.0057 	 39144
5.01063 	 38426
5.01557 	 37668
5.0205 	 38453
5.02543 	 38212
5.03037 	 38680
5.0353 	 37812
5.04023 	 37799
5.04518 	 36640
5.05012 	 37376
5.05505 	 37647
5.05997 	 37665
5.0649 	 38818
5.06985 	 38330
5.07478 	 37077
5.07972 	 37252
5.08463 	 37315
5.08957 	 36776
5.09452 	 36856
5.09945 	 37345
5.10438 	 37957
5.10932 	 37076
5.11423 	 36580
5.11918 	 37143
5.12412 	 37377
5.12905 	 38490
5.13398 	 39404
5.13892 	 39351
5.14383 	 39546
5.14878 	 38676
5.15372 	 38221
5.15865 	 38432
5.16358 	 37253
5.16852 	 37702
5.17345 	 38262
5.17838 	 38375
5.18332 	 37635
5.18825 	 38214
5.19318 	 37365
5.19812 	 37344
5.20307 	 38172
5.208 	 38044
5.23845 	 39640
5.24285 	 38266
5.24727 	 38044
5.25168 	 38289
5.25612 	 38262
5.26105 	 39628
5.26598 	 39131
5.27092 	 38155
5.27585 	 37001
5.2808 	 37037
5.28573 	 37343
5.29067 	 38116
5.2956 	 38055
5.30053 	 37503
5.30547 	 38339
5.31042 	 37597
5.31535 	 37630
5.32028 	 38363
5.32522 	 38267
5.33015 	 39315
5.3351 	 39454
5.34003 	 38252
5.34497 	 38909
5.3499 	 38390
5.35483 	 39870
5.35977 	 38776
5.36472 	 39309
5.36965 	 38860
5.37458 	 39093
5.37952 	 39437
5.38445 	 38562
5.3894 	 37692
5.39433 	 37787
5.39927 	 38381
5.4042 	 38240
5.40913 	 38070
5.41407 	 37183
5.419 	 38181
5.42393 	 37941
5.42888 	 37727
5.43382 	 37483
5.43875 	 37744
5.44368 	 37143
5.44862 	 37329
5.45357 	 37987
5.4585 	 38088
5.46343 	 37936
5.46837 	 37806
5.4733 	 37624
5.47823 	 39185
5.48318 	 40022
5.48812 	 39707
5.49305 	 38699
5.49798 	 37592
5.50292 	 37905
5.50787 	 37335
5.5128 	 36818
5.51773 	 37776
5.52267 	 38994
5.5276 	 39633
5.53253 	 38043
5.53748 	 37036
5.54242 	 37591
5.54735 	 37659
5.55228 	 38486
5.55722 	 38261
5.56217 	 38081
5.5671 	 38090
5.57203 	 38052
5.57697 	 37305
5.5819 	 36673
5.58685 	 36470
5.59178 	 37819
5.59672 	 37921
5.60165 	 37483
5.60658 	 38064
5.61152 	 38240
5.61645 	 38890
5.62138 	 38729
5.62633 	 39031
5.63127 	 38959
5.6362 	 38940
5.64113 	 39521
5.64607 	 38122
5.65102 	 38540
5.65595 	 38139
5.66088 	 37934
5.66582 	 39283
5.67075 	 38993
5.6757 	 39307
5.68063 	 38093
5.68557 	 38327
5.6905 	 38781
5.69543 	 39768
5.70038 	 39730
5.70532 	 39189
5.71025 	 39021
5.71518 	 39064
5.72012 	 39225
5.72505 	 38815
5.73 	 38256
5.73493 	 37637
5.73987 	 37547
5.7448 	 36915
5.74975 	 38341
5.75468 	 38131
5.75962 	 39076
5.76455 	 39215
5.76948 	 39241
5.77443 	 38208
5.77937 	 38798
5.7843 	 38372
5.78923 	 39297
5.79417 	 39202
5.7991 	 38777
5.80405 	 38138
5.80898 	 38957
5.81392 	 39395
5.81885 	 39019
5.8238 	 39435
5.82873 	 38947
5.83367 	 39471
5.8386 	 39416
5.84353 	 38197
5.84848 	 37534
5.85342 	 37487
5.85835 	 37220
5.86328 	 36986
5.86822 	 37013
5.87317 	 38302
5.8781 	 37460
5.88303 	 37168
5.88797 	 36883
5.8929 	 37540
5.89783 	 37868
5.90277 	 37170
5.9077 	 38186
5.91263 	 37685
5.91757 	 37809
5.92252 	 37083
5.92745 	 37621
5.93238 	 38933
5.93732 	 39110
5.94225 	 38295
5.94718 	 36924
5.95212 	 37506
5.95707 	 37293
5.962 	 37911
5.96693 	 39338
5.97187 	 38325
5.9768 	 37785
5.98173 	 38970
5.98667 	 37743
5.9916 	 38439
5.99655 	 37813
6.00148 	 37450
6.00642 	 38437
6.01135 	 37654
6.01628 	 37573
6.02123 	 38102
6.02617 	 38735
6.0311 	 38935
6.03603 	 38694
6.04097 	 38271
6.0459 	 37649
6.05085 	 37580
6.05578 	 37845
6.06072 	 38255
6.06565 	 37921
6.07058 	 38525
6.07553 	 39177
6.08047 	 38206
6.0854 	 37577
6.09033 	 38149
6.09527 	 38118
6.10022 	 39123
6.10515 	 38888
6.11008 	 38529
6.11502 	 37696
6.11995 	 38127
6.12488 	 38779
6.12983 	 37292
6.13477 	 37100
6.1397 	 37535
6.14463 	 37488
6.14957 	 37353
6.1545 	 38105
6.15943 	 39298
6.16437 	 38909
6.16932 	 39995
6.17425 	 38167
6.17918 	 37813
6.18412 	 39508
6.18905 	 38955
6.194 	 36681
6.19893 	 37349
6.20387 	 37790
6.2088 	 38878
6.21373 	 39205
6.21868 	 38821
6.22362 	 38356
6.22855 	 38230
6.23348 	 39217
6.23842 	 38864
6.24335 	 39219
6.2483 	 39548
6.25323 	 39759
6.25817 	 39635
6.2631 	 39344
6.26803 	 39577
6.27298 	 39844
6.27792 	 39445
6.28285 	 38656
6.28778 	 37461
6.29272 	 37916
6.29767 	 38564
6.3026 	 37491
6.30753 	 37758
6.31247 	 37432
6.3174 	 39362
6.32235 	 40703
6.32728 	 39041
6.33222 	 38837
6.33715 	 38625
6.34208 	 39604
6.34703 	 39445
6.35197 	 38844
6.3569 	 37832
6.36183 	 37751
6.36678 	 38102
6.37172 	 38544
6.37665 	 39170
6.38158 	 38778
6.38652 	 38685
6.39147 	 39112
6.3964 	 38678
6.40133 	 38353
6.40627 	 37915
6.4112 	 38146
6.41615 	 38869
6.42108 	 39585
6.42602 	 38386
6.43095 	 38816
6.43588 	 38950
6.44082 	 38554
6.44577 	 38864
6.4507 	 37850
6.45563 	 37206
6.46057 	 37582
6.4655 	 38934
6.47043 	 38910
6.47538 	 37840
6.48032 	 38271
6.48525 	 36602
6.49018 	 37637
6.49512 	 39266
6.50005 	 38557
6.50498 	 38951
6.50992 	 38592
6.51487 	 38182
6.5198 	 37837
6.52473 	 38196
6.52967 	 37981
6.5346 	 37901
6.53955 	 38194
6.54448 	 38289
6.54942 	 38749
6.55435 	 39009
6.55928 	 38876
6.56422 	 38192
6.56917 	 39490
6.5741 	 39798
6.57903 	 39071
6.58397 	 38713
6.5889 	 37826
6.59385 	 38528
6.59878 	 38942
6.60372 	 38718
6.60865 	 39440
6.61358 	 38556
6.61852 	 39183
6.62347 	 39083
6.6284 	 39983
6.63333 	 39880
6.63827 	 39695
6.6432 	 38264
6.64813 	 37895
6.65308 	 38700
6.65802 	 37959
6.66295 	 38512
6.66788 	 37873
6.67282 	 37933
6.67777 	 38368
6.68268 	 38396
6.68763 	 39078
6.69257 	 38665
6.6975 	 39811
6.70243 	 39224
6.70737 	 39184
6.71232 	 38588
6.71725 	 39088
6.72218 	 38555
6.72712 	 39224
6.73205 	 37582
6.737 	 37727
6.74193 	 37610
6.74687 	 38503
6.7518 	 38212
6.75673 	 38223
6.76167 	 38223
6.76662 	 37146
6.77155 	 37337
6.77648 	 38294
6.78142 	 36863
6.78635 	 37377
6.79128 	 38461
6.79622 	 39675
6.80115 	 38534
6.80608 	 39104
6.81103 	 38434
6.81597 	 37969
6.8209 	 37986
6.82583 	 37969
6.83077 	 37672
6.8357 	 37093
6.84063 	 38897
6.84557 	 38249
6.8505 	 39449
6.85543 	 38490
6.86038 	 38682
6.86532 	 39340
6.87025 	 38699
6.87518 	 38138
6.88012 	 38749
6.88505 	 37901
6.89 	 36819
6.89493 	 37447
6.89987 	 37384
6.9048 	 37888
6.90973 	 38797
6.91467 	 38205
6.91962 	 38237
6.92455 	 38966
6.92947 	 38825
6.93442 	 38610
6.93935 	 38641
6.94428 	 38919
6.94922 	 38411
6.95415 	 40439
6.9591 	 38615
6.96403 	 38749
6.96897 	 39872
6.9739 	 40028
6.97883 	 39000
6.98378 	 37999
6.98872 	 37780
6.99365 	 37578
6.99858 	 38489
7.00352 	 38157
7.00845 	 39417
7.0134 	 38869
7.01833 	 38579
7.02327 	 37518
7.0282 	 39079
7.03313 	 38841
7.03807 	 38954
7.04302 	 37986
7.04795 	 38373
7.05288 	 38989
7.05782 	 39248
7.06275 	 38922
7.06768 	 38579
7.07262 	 38620
7.07755 	 39323
7.08248 	 39017
7.08742 	 38329
7.09237 	 38409
7.0973 	 38134
7.10223 	 37687
7.10717 	 38768
7.1121 	 40184
7.11703 	 40182
7.12197 	 39274
7.1269 	 38861
7.13185 	 38607
7.13678 	 38666
7.14172 	 39130
7.14665 	 39324
7.15158 	 39978
7.15652 	 39724
7.16145 	 39526
7.1664 	 39695
7.17132 	 38959
7.17627 	 39189
7.1812 	 38172
7.18613 	 38183
7.19107 	 37762
7.196 	 38372
7.20093 	 38534
7.20588 	 38764
7.21082 	 39007
7.21575 	 38653
7.22068 	 39183
7.22562 	 38614
7.23057 	 39993
7.2355 	 40674
7.24043 	 39720
7.24537 	 39004
7.2503 	 38248
7.25525 	 39022
7.26018 	 39485
7.26512 	 40777
7.27005 	 39902
7.27498 	 39975
7.27992 	 39865
7.28487 	 38732
7.2898 	 39453
7.29473 	 40383
7.29967 	 40131
7.3046 	 38790
7.30953 	 38681
7.31448 	 39187
7.31942 	 39462
7.32435 	 39516
7.32928 	 39115
7.33422 	 39351
7.33915 	 39272
7.34408 	 39271
7.34902 	 38832
7.35397 	 39580
7.3589 	 39522
7.36383 	 40308
7.36877 	 39080
7.3737 	 39499
7.37865 	 40155
7.38358 	 39696
7.38852 	 40105
7.39345 	 39930
7.39838 	 39234
7.40332 	 38931
7.40827 	 39780
7.43872 	 40211
7.44312 	 40516
7.44755 	 39608
7.45197 	 39081
7.45638 	 40188
7.46133 	 40432
7.46627 	 38759
7.4712 	 39655
7.47615 	 39327
7.48108 	 38724
7.48602 	 39034
7.49095 	 38348
7.4959 	 39778
7.50083 	 40058
7.50577 	 40102
7.5107 	 39309
7.51565 	 38713
7.52058 	 38481
7.52552 	 38571
7.53045 	 38893
7.5354 	 38759
7.54033 	 39017
7.54527 	 38611
7.5502 	 39329
7.55513 	 39321
7.56007 	 39250
7.565 	 37675
7.56995 	 38009
7.57488 	 40199
7.57982 	 39801
7.58475 	 38999
7.5897 	 39206
7.59463 	 38514
7.59957 	 38730
7.6045 	 38123
7.60945 	 38027
7.61438 	 38492
7.61932 	 39256
7.62425 	 39647
7.62918 	 40277
7.63413 	 39218
7.63907 	 40086
7.644 	 40027
7.64893 	 38961
7.65387 	 38863
7.65882 	 39362
7.66375 	 39122
7.6687 	 39356
7.67363 	 38457
7.67857 	 38408
7.68352 	 38557
7.68845 	 38879
7.69338 	 38631
7.69832 	 37998
7.70325 	 38721
7.7082 	 38460
7.71313 	 39110
7.71807 	 39802
7.723 	 39621
7.72795 	 38859
7.73288 	 39343
7.73782 	 39521
7.74277 	 38721
7.7477 	 39511
7.75263 	 39733
7.75758 	 39754
7.76252 	 39817
7.76745 	 38986
7.77238 	 38913
7.77732 	 38823
7.78227 	 38827
7.7872 	 39126
7.79215 	 39249
7.79708 	 39646
7.80202 	 39020
7.80695 	 38594
7.8119 	 39433
7.81683 	 39746
7.82177 	 39119
7.8267 	 39104
7.83165 	 39325
7.83658 	 39365
7.84153 	 39351
7.84647 	 39577
7.8514 	 39294
7.85633 	 40918
7.86128 	 40121
7.86622 	 41425
7.87115 	 40253
7.87608 	 40247
7.88103 	 39561
7.88597 	 39560
7.8909 	 39758
7.89583 	 39654
7.90078 	 38540
7.90572 	 38419
7.91067 	 38416
7.9156 	 38896
7.92053 	 39487
7.92547 	 39991
7.93042 	 40036
7.93535 	 39730
7.94028 	 40394
7.94522 	 41427
7.95015 	 41307
7.9551 	 40990
7.96003 	 39570
7.96497 	 40255
7.96992 	 40330
7.97485 	 40350
7.9798 	 39478
7.98473 	 37918
7.98967 	 38581
7.9946 	 38750
7.99953 	 38740
8.00448 	 39548
8.00942 	 38767
8.01437 	 38503
8.0193 	 38704
8.02423 	 38558
8.02917 	 38622
8.03412 	 39658
8.03905 	 39872
8.04398 	 38880
8.04892 	 39274
8.05387 	 39270
8.0588 	 40768
8.06373 	 40291
8.06867 	 39081
8.0736 	 38932
8.07855 	 37725
8.08348 	 38078
8.08842 	 38437
8.09335 	 40098
8.09828 	 39661
8.10323 	 40596
8.10817 	 39470
8.1131 	 39559
8.11803 	 39292
8.12298 	 40253
8.12792 	 39043
8.13285 	 39471
8.1378 	 39971
8.14273 	 39616
8.14767 	 40122
8.15262 	 39994
8.15755 	 40503
8.16248 	 39551
8.16742 	 39654
8.17235 	 40154
8.1773 	 40039
8.18223 	 40158
8.18717 	 40167
8.19212 	 40256
8.19705 	 39926
8.20198 	 40729
8.20692 	 41340
8.21187 	 39840
8.2168 	 38689
8.22173 	 38924
8.22667 	 39634
8.2316 	 39352
8.23655 	 39244
8.24148 	 40457
8.24643 	 40164
8.25137 	 40298
8.2563 	 39248
8.26123 	 40571
8.26618 	 39767
8.27112 	 39278
8.27605 	 39834
8.28098 	 40399
8.28593 	 41125
8.29087 	 39227
8.32133 	 40125
8.32573 	 40850
8.33017 	 41323
8.33458 	 40184
8.339 	 39588
8.34393 	 39015
8.34888 	 39855
8.35382 	 39370
8.35875 	 40315
8.36368 	 40358
8.36862 	 38946
8.37355 	 39342
8.3785 	 39472
8.38343 	 38980
8.38837 	 38886
8.3933 	 39145
8.39823 	 39406
8.40317 	 39627
8.4081 	 40933
8.41303 	 39527
8.41798 	 40004
8.42292 	 40204
8.42785 	 39522
8.43278 	 40228
8.43772 	 40494
8.44267 	 39553
8.4476 	 39546
8.45253 	 39415
8.45747 	 40252
8.4624 	 39577
8.46735 	 39219
8.47228 	 39015
8.47722 	 39725
8.48215 	 39535
8.48708 	 39889
8.49202 	 40549
8.49697 	 40476
8.5019 	 40300
8.50683 	 40719
8.51177 	 39396
8.5167 	 40604
8.52165 	 40663
8.52658 	 40143
8.53152 	 40578
8.53645 	 40010
8.54138 	 39694
8.54633 	 40243
8.55127 	 40883
8.5562 	 41093
8.56113 	 40685
8.56607 	 40119
8.571 	 40326
8.57595 	 41060
8.58088 	 40595
8.58582 	 40941
8.59075 	 41162
8.59568 	 39515
8.60063 	 40011
8.60557 	 40283
8.6105 	 40486
8.61543 	 41381
8.62037 	 40679
8.6253 	 41001
8.63023 	 40806
8.63517 	 40828
8.64012 	 42183
8.64505 	 41484
8.64998 	 41160
8.65492 	 40394
8.65985 	 40360
8.6648 	 39914
8.66973 	 40215
8.67467 	 40288
8.6796 	 41172
8.68453 	 40732
8.68948 	 40375
8.69442 	 40839
8.72488 	 42316
8.72928 	 41076
8.7337 	 41211
8.73812 	 40302
8.74255 	 40923
8.74748 	 41776
8.75242 	 40611
8.75737 	 41383
8.7623 	 41114
8.76723 	 41100
8.77217 	 41070
8.7771 	 41745
8.78203 	 42346
8.78698 	 41976
8.79192 	 43601
8.79685 	 43113
8.80178 	 43534
8.80673 	 43493
8.81167 	 41954
8.8166 	 42163
8.82153 	 41811
8.82648 	 42897
8.83142 	 43174
8.83635 	 42344
8.84128 	 43425
8.84622 	 42172
8.85115 	 42945
8.8561 	 43573
8.86103 	 43952
8.86597 	 44132
8.8709 	 43986
8.87583 	 44405
8.88077 	 43694
8.8857 	 42570
8.89063 	 43115
8.89558 	 43592
8.90052 	 43092
8.90545 	 42798
8.91038 	 43429
8.91532 	 43660
8.92025 	 42685
8.9252 	 42656
8.93013 	 42389
8.93507 	 43344
8.94 	 44093
8.94493 	 44169
8.94987 	 45398
8.98033 	 45512
8.98472 	 44611
8.98915 	 44110
8.99357 	 43160
8.99798 	 43296
9.00293 	 42831
9.00787 	 44829
9.0128 	 46136
9.01773 	 44928
9.02267 	 43766
9.0276 	 44340
9.03255 	 43951
9.03748 	 44931
9.04242 	 43646
9.04735 	 44119
9.05228 	 45682
9.05723 	 45712
9.06217 	 45570
9.0671 	 45462
9.07203 	 47148
9.07697 	 49493
9.08192 	 52841
9.08685 	 51778
9.09178 	 50819
9.09672 	 48601
9.10165 	 45966
9.10658 	 44839
9.11152 	 43980
9.11645 	 44867
9.12138 	 44709
9.12633 	 44520
9.13127 	 44274
9.1362 	 44706
9.14113 	 44637
9.14607 	 44529
9.151 	 44366
9.15593 	 44864
9.16088 	 44951
9.16582 	 45304
9.17075 	 46018
9.17568 	 44801
9.18062 	 44676
9.18557 	 44344
9.1905 	 45111
9.19543 	 43948
9.20037 	 44062
9.20532 	 44718
9.21025 	 44155
9.21518 	 44047
9.22012 	 44066
9.22505 	 44829
9.23 	 44764
9.23493 	 44412
9.23987 	 42511
9.2448 	 42877
9.24973 	 43519
9.25467 	 43835
9.25962 	 43919
9.26455 	 44033
9.26947 	 44372
9.27442 	 43184
9.27935 	 43297
9.28428 	 42720
9.28922 	 43151
9.29415 	 43405
9.2991 	 43964
9.30403 	 43534
9.30897 	 45547
9.3139 	 44721
9.31883 	 44721
9.32378 	 44199
9.32872 	 43037
9.33365 	 43177
9.33858 	 43299
9.34352 	 44352
9.34847 	 43422
9.3534 	 44048
9.35833 	 43004
9.36327 	 42639
9.3682 	 42504
9.37313 	 43626
9.37807 	 44019
9.38302 	 43094
9.38795 	 42810
9.39287 	 42260
9.39782 	 42617
9.40275 	 42903
9.40768 	 43749
9.41262 	 44163
9.41755 	 44699
9.4225 	 45169
9.42743 	 43963
9.43237 	 42437
9.4373 	 42909
9.44223 	 43361
9.44717 	 43620
9.45212 	 43306
9.45705 	 43076
9.46198 	 43010
9.46692 	 42802
9.47185 	 43864
9.47678 	 43543
9.48173 	 42782
9.48667 	 43382
9.4916 	 43644
9.49653 	 43378
9.50147 	 43231
9.5064 	 43407
9.51133 	 44096
9.51627 	 43622
9.52122 	 43506
9.52615 	 43927
9.53108 	 44550
9.53602 	 43916
9.54095 	 44255
9.5459 	 44069
9.55083 	 43469
9.55577 	 44232
9.5607 	 43505
9.56563 	 43361
9.57058 	 43239
9.57552 	 45035
9.58045 	 44262
9.58538 	 44514
9.59032 	 44802
9.59525 	 45073
9.60018 	 45110
9.60513 	 44368
9.61007 	 44167
9.615 	 43517
9.61993 	 44112
9.62487 	 43571
9.6298 	 43803
9.63473 	 43305
9.63967 	 43260
9.64462 	 44267
9.64955 	 43458
9.65448 	 43740
9.65942 	 43821
9.66435 	 44600
9.66928 	 44812
9.67423 	 45699
9.67917 	 46403
9.6841 	 45339
9.68903 	 44195
9.69397 	 44192
9.6989 	 44593
9.70383 	 44996
9.70877 	 45961
9.7137 	 46366
9.71863 	 46480
9.72357 	 46247
9.72852 	 44743
9.73345 	 45964
9.73838 	 46677
9.74332 	 45674
9.74825 	 44190
9.7532 	 44118
9.75813 	 44462
9.76307 	 45300
9.768 	 46089
9.77293 	 45436
9.77787 	 45898
9.7828 	 44876
9.78773 	 45600
9.79268 	 45148
9.7976 	 45537
9.80255 	 45987
9.80748 	 45901
9.81242 	 46173
9.81735 	 45664
9.82228 	 45348
9.82723 	 43590
9.83217 	 43665
9.8371 	 45688
9.84203 	 47026
9.84697 	 47322
9.85192 	 46386
9.85685 	 46434
9.86178 	 46100
9.86672 	 46416
9.87165 	 46872
9.87658 	 45148
9.88152 	 44564
9.88645 	 44224
9.89138 	 45733
9.89632 	 44922
9.90127 	 45535
9.9062 	 44556
9.91113 	 44740
9.91607 	 45561
9.921 	 46270
9.92595 	 46289
9.93088 	 46750
9.93582 	 46493
9.94075 	 45498
9.94568 	 45300
9.95062 	 44735
9.95555 	 45061
9.9605 	 45488
9.96543 	 45420
9.97035 	 45178
9.9753 	 45053
9.98023 	 45512
9.98517 	 46040
9.9901 	 46626
