D:\MassHunter\GCMS\1\data\Victoria Marland\22FEB\220223012.D 23 Feb 22  06:09 pm
Start of data points
3.09162,497
3.09638,563
3.10115,764
3.10592,571
3.11067,673
3.11543,832
3.1202,726
3.12495,471
3.12972,438
3.13448,509
3.13925,703
3.144,625
3.14877,891
3.15353,679
3.15828,658
3.16305,672
3.16782,655
3.17258,920
3.17733,795
3.1821,932
3.18687,1011
3.19162,661
3.19638,860
3.20115,714
3.20592,732
3.21067,1112
3.21543,686
3.2202,937
3.22495,835
3.22972,1028
3.23448,893
3.23925,879
3.244,546
3.24877,831
3.25353,935
3.25828,913
3.26305,802
3.26782,974
3.27258,854
3.27733,996
3.2821,871
3.28687,809
3.29163,841
3.29638,688
3.30115,795
3.30592,842
3.31067,650
3.31543,933
3.3202,936
3.32497,615
3.32972,698
3.33448,610
3.33925,704
3.344,698
3.34877,944
3.35353,991
3.3583,972
3.36305,571
3.36782,730
3.37258,847
3.37733,712
3.3821,974
3.38687,623
3.39163,701
3.39638,677
3.40115,765
3.40592,705
3.41067,796
3.41543,499
3.4202,680
3.42497,856
3.42972,674
3.43448,970
3.43925,586
3.44402,970
3.44877,788
3.45353,929
3.4583,686
3.46305,846
3.46782,725
3.47258,789
3.47735,488
3.4821,660
3.48687,558
3.49163,688
3.49638,786
3.50115,696
3.50592,755
3.51068,870
3.51543,962
3.5202,1403
3.52497,2931
3.52972,2356
3.53448,803
3.53925,696
3.54402,774
3.54877,845
3.55353,838
3.5583,773
3.56305,897
3.56782,832
3.57258,878
3.57735,749
3.5821,672
3.58687,599
3.59163,641
3.59638,807
3.60115,733
3.60592,713
3.61068,799
3.61543,782
3.6202,828
3.62497,623
3.62973,533
3.63448,947
3.63925,675
3.64402,924
3.64877,1007
3.65353,701
3.6583,722
3.66307,732
3.66782,730
3.67258,666
3.67735,560
3.6821,677
3.68687,822
3.69163,1021
3.6964,970
3.70115,947
3.70592,728
3.71068,832
3.71543,883
3.7202,733
3.72497,790
3.72973,619
3.73448,763
3.73925,802
3.74402,782
3.74877,854
3.75353,811
3.7583,729
3.76307,717
3.76782,759
3.77258,916
3.77735,792
3.78212,904
3.78687,767
3.79163,912
3.7964,779
3.80115,686
3.80592,1104
3.81068,681
3.81545,803
3.8202,1050
3.82497,877
3.82973,1027
3.83448,653
3.83925,577
3.84402,815
3.84878,797
3.85353,466
3.8583,814
3.86307,745
3.86782,762
3.87258,785
3.87735,764
3.88212,831
3.88687,1040
3.89163,687
3.8964,709
3.90115,856
3.90592,770
3.91068,883
3.91545,741
3.9202,687
3.92497,694
3.92973,919
3.93448,858
3.93925,747
3.94402,628
3.94878,792
3.95353,888
3.9583,898
3.96307,792
3.96783,809
3.97258,561
3.97735,853
3.98212,951
3.98687,644
3.99163,1007
3.9964,1003
4.00117,2160
4.00592,1883
4.01068,1321
4.01545,1363
4.0202,1308
4.02497,711
4.02973,1107
4.0345,739
4.03925,736
4.04402,747
4.04878,1113
4.05353,1771
4.0583,724
4.06307,743
4.06783,1054
4.07258,759
4.07735,972
4.08212,983
4.08687,740
4.09163,748
4.0964,1071
4.10117,1168
4.10592,804
4.11068,975
4.11545,935
4.12022,1034
4.12497,815
4.12973,718
4.1345,705
4.13925,846
4.14402,991
4.14878,749
4.15355,660
4.1583,923
4.16307,717
4.16783,750
4.17258,731
4.17735,677
4.18212,853
4.18688,1139
4.19163,876
4.1964,891
4.20117,813
4.20592,1142
4.21068,818
4.21545,1718
4.22022,2374
4.22497,1237
4.22973,878
4.2345,844
4.23925,948
4.24402,971
4.24878,902
4.25355,936
4.2583,889
4.26307,659
4.26783,963
4.27258,750
4.27735,720
4.28212,788
4.28688,890
4.29163,919
4.2964,918
4.30117,1008
4.30593,873
4.31068,1008
4.31545,716
4.32022,658
4.32497,705
4.32973,934
4.3345,855
4.33927,751
4.34402,1016
4.34878,864
4.35355,959
4.3583,889
4.36307,858
4.36783,550
4.3726,866
4.37735,961
4.38212,1521
4.38688,1071
4.39163,845
4.3964,727
4.40117,866
4.40593,1040
4.41068,865
4.41545,641
4.42022,910
4.42497,767
4.42973,1072
4.4345,889
4.43927,1073
4.44402,1085
4.44878,808
4.45355,941
4.45832,1044
4.46307,616
4.46783,897
4.4726,1036
4.47735,759
4.48212,808
4.48688,839
4.49165,819
4.4964,1050
4.50117,962
4.50593,969
4.51068,670
4.51545,774
4.52022,1019
4.52498,1158
4.52973,837
4.5345,1131
4.53927,942
4.54402,952
4.54878,544
4.55355,1056
4.55832,835
4.56307,919
4.56783,823
4.5726,744
4.57735,942
4.58212,947
4.58688,798
4.59165,1087
4.5964,868
4.60117,1044
4.60593,777
4.61068,935
4.61545,1047
4.62022,830
4.62498,829
4.62973,781
4.6345,1108
4.63927,819
4.64403,809
4.64878,1240
4.65355,852
4.65832,895
4.66307,872
4.66783,1343
4.6726,1058
4.67737,995
4.68212,961
4.68688,946
4.69165,806
4.6964,1228
4.70117,1083
4.70593,927
4.7107,771
4.71545,1225
4.72022,985
4.72498,1108
4.72973,932
4.7345,935
4.73927,1071
4.74403,1188
4.74878,999
4.75355,1008
4.75832,873
4.76307,981
4.76783,761
4.7726,903
4.77737,1076
4.78212,1158
4.78688,916
4.79165,966
4.7964,1179
4.80117,1346
4.80593,1705
4.8107,1939
4.81545,923
4.82022,743
4.82498,1012
4.82975,1111
4.8345,997
4.83927,1061
4.84403,1044
4.84878,907
4.85355,996
4.85832,1065
4.86308,930
4.86783,710
4.8726,1188
4.87737,1023
4.88212,1164
4.88688,977
4.89165,1063
4.89642,959
4.90117,1177
4.90593,1205
4.9107,1083
4.91545,888
4.92022,904
4.92498,1038
4.92975,726
4.9345,1210
4.93927,1216
4.94403,1090
4.94878,1144
4.95355,1116
4.95832,987
4.96308,948
4.96783,829
4.9726,973
4.97737,1282
4.98213,1031
4.98688,1198
4.99165,784
4.99642,1200
5.00117,1088
5.00593,914
5.0107,1157
5.01547,1161
5.02022,1101
5.02498,1288
5.02975,1374
5.0345,972
5.03927,899
5.04403,845
5.0488,955
5.05355,1297
5.05832,1037
5.06308,1159
5.06783,895
5.0726,1025
5.07737,941
5.08213,1117
5.08688,1392
5.09165,1020
5.09642,1147
5.10117,966
5.10593,1027
5.1107,1019
5.11547,1054
5.12022,1554
5.12498,1010
5.12975,1134
5.1345,1210
5.13927,1047
5.14403,1385
5.1488,1193
5.15355,1099
5.15832,1146
5.16308,948
5.16785,1883
5.1726,1553
5.17737,1353
5.18213,1319
5.18688,1232
5.19165,1120
5.19642,909
5.20118,1274
5.20593,1107
5.2107,1033
5.21547,1013
5.22022,1516
5.22498,1408
5.22975,1273
5.23452,1246
5.23927,1019
5.24403,1099
5.2488,1144
5.25355,964
5.25832,1068
5.26308,1184
5.26785,1121
5.2726,1134
5.27737,1456
5.28213,1395
5.28688,894
5.29165,1132
5.29642,1427
5.30118,1674
5.30593,1043
5.3107,982
5.31547,1235
5.32023,1500
5.32498,1438
5.32975,1477
5.33452,1545
5.33927,1524
5.34403,1216
5.3488,1386
5.35357,1415
5.35832,1133
5.36308,1375
5.36785,1278
5.3726,927
5.37737,1096
5.38213,1139
5.3869,1475
5.39165,1134
5.39642,1237
5.40118,1432
5.40593,1321
5.4107,1468
5.41547,1163
5.42023,1276
5.42498,1503
5.42975,1203
5.43452,1202
5.43927,999
5.44403,1544
5.4488,1344
5.45357,1223
5.45832,892
5.46308,1436
5.46785,1337
5.4726,1221
5.47737,1112
5.48213,1373
5.4869,1617
5.49165,1539
5.49642,1091
5.50118,1345
5.50595,1118
5.5107,1429
5.51547,1152
5.52023,1222
5.52498,1256
5.52975,1130
5.53452,1297
5.53928,968
5.54403,1051
5.5488,1730
5.55357,1628
5.55832,1099
5.56308,1671
5.56785,1613
5.57262,1140
5.57737,1050
5.58213,1276
5.5869,1232
5.59165,1445
5.59642,1243
5.60118,1091
5.60595,1305
5.6107,1217
5.61547,1305
5.62023,1409
5.62498,1602
5.62975,1612
5.63452,1191
5.63928,1255
5.64403,1425
5.6488,1118
5.65357,1363
5.65833,1204
5.66308,1302
5.66785,1236
5.67262,1379
5.67737,1252
5.68213,1575
5.6869,1650
5.69167,1251
5.69642,1321
5.70118,1101
5.70595,1636
5.7107,1374
5.71547,1461
5.72023,1283
5.725,1511
5.72975,1496
5.73452,1478
5.73928,1642
5.74403,1576
5.7488,1197
5.75357,1666
5.75833,1174
5.76308,1526
5.76785,1093
5.77262,1412
5.77737,1270
5.78213,1548
5.7869,1299
5.79167,1577
5.79642,1707
5.80118,1945
5.80595,1890
5.8107,1383
5.81547,2152
5.82023,1625
5.825,1594
5.82975,1666
5.83452,1453
5.83928,1215
5.84405,1251
5.8488,1315
5.85357,1308
5.85833,1392
5.86308,1441
5.86785,1600
5.87262,1822
5.87738,1555
5.88213,1883
5.8869,1374
5.89167,1697
5.89642,1427
5.90118,1459
5.90595,1473
5.91072,1294
5.91547,1308
5.92023,1342
5.925,1586
5.92975,1662
5.93452,1783
5.93928,1470
5.94405,1769
5.9488,2661
5.95357,1584
5.95833,1500
5.96308,1832
5.96785,1367
5.97262,1464
5.97738,1537
5.98213,1446
5.9869,1583
5.99167,1778
5.99642,1359
6.00118,1563
6.00595,1350
6.01072,1784
6.01547,1677
6.02023,1666
6.025,1695
6.02977,1994
6.03452,1990
6.03928,1717
6.04405,1505
6.0488,1940
6.05357,1707
6.05833,2254
6.0631,1617
6.06785,1520
6.07262,1847
6.07738,1813
6.08213,1422
6.0869,2928
6.09167,2031
6.09643,1608
6.10118,1735
6.10595,1643
6.11072,1944
6.11547,1574
6.12023,1255
6.125,1349
6.12977,1868
6.13452,2021
6.13928,1819
6.14405,1878
6.1488,1744
6.15357,1887
6.15833,1934
6.1631,1659
6.16785,1760
6.17262,1905
6.17738,1756
6.18215,2055
6.1869,1914
6.19167,1844
6.19643,2101
6.20118,1912
6.20595,1670
6.21072,1906
6.21548,1846
6.22023,2034
6.225,2153
6.22977,2544
6.23452,3027
6.23928,1634
6.24405,1697
6.24882,2367
6.25357,1929
6.25833,1913
6.2631,1945
6.26785,1527
6.27262,1903
6.27738,1613
6.28215,2224
6.2869,2044
6.29167,1927
6.29643,1663
6.30118,2139
6.30595,2054
6.31072,2338
6.31548,2175
6.32023,1980
6.325,2244
6.32977,1981
6.33452,2110
6.33928,2019
6.34405,2345
6.34882,2058
6.35357,2419
6.35833,2130
6.3631,2270
6.36787,1849
6.37262,2102
6.37738,2138
6.38215,2419
6.3869,2312
6.39167,2617
6.39643,2301
6.4012,2501
6.40595,2198
6.41072,2065
6.41548,2741
6.42023,2326
6.425,2282
6.42977,1947
6.43453,2419
6.43928,2374
6.44405,2453
6.44882,2653
6.45357,2134
6.45833,2555
6.4631,2360
6.46787,2596
6.47262,2527
6.47738,2245
6.48215,2452
6.4869,3214
6.49167,40403
6.49643,348065
6.5012,2229300
6.50595,6570924
6.51072,6359823
6.51548,2125365
6.52025,661682
6.525,333650
6.52977,214399
6.53453,153703
6.53928,119365
6.54405,91275
6.54882,77431
6.55358,62753
6.55833,55783
6.5631,46249
6.56787,41055
6.57262,35300
6.57738,33866
6.58215,29161
6.58692,26588
6.59167,25669
6.59643,23001
6.6012,21065
6.60595,20313
6.61072,17691
6.61548,18101
6.62025,16004
6.625,15463
6.62977,15531
6.63453,14455
6.63928,11171
6.64405,12718
6.64882,11536
6.65358,12006
6.65833,11528
6.6631,9948
6.66787,9514
6.67262,10058
6.67738,10195
6.68215,10183
6.68692,8900
6.69167,8130
6.69643,9482
6.7012,9164
6.70597,8716
6.71072,7811
6.71548,7307
6.72025,8056
6.725,6726
6.72977,7048
6.73453,6498
6.7393,7067
6.74405,6211
6.74882,6519
6.75358,7139
6.75833,6510
6.7631,6473
6.76787,6235
6.77263,5989
6.77738,5771
6.78215,6059
6.78692,7422
6.79167,6763
6.79643,6111
6.8012,6974
6.80597,5949
6.81072,6073
6.81548,4789
6.82025,4829
6.825,4999
6.82977,5487
6.83453,5854
6.8393,5706
6.84405,5442
6.84882,5588
6.85358,4873
6.85835,6122
6.8631,5313
6.86787,6435
6.87263,5820
6.87738,5773
6.88215,5546
6.88692,4953
6.89168,5457
6.89643,5460
6.9012,5148
6.90597,5611
6.91072,5140
6.91548,5752
6.92025,4258
6.92502,4926
6.92977,7302
6.93453,9360
6.9393,10192
6.94405,7237
6.94882,7150
6.95358,5879
6.95835,4809
6.9631,5305
6.96787,5447
6.97263,4665
6.97738,4980
6.98215,5519
6.98692,5585
6.99168,5039
6.99643,4657
7.0012,4799
7.00597,4715
7.01072,4642
7.01548,5570
7.02025,5893
7.02502,5262
7.02977,6356
7.03453,4603
7.0393,5346
7.04407,4797
7.04882,5069
7.05358,5637
7.05835,4776
7.0631,5159
7.06787,5522
7.07263,4847
7.0774,4800
7.08215,5817
7.08692,5159
7.09168,4349
7.09643,5223
7.1012,5001
7.10597,5812
7.11073,5314
7.11548,4675
7.12025,4843
7.12502,5266
7.12977,4628
7.13453,4943
7.1393,4894
7.14407,5457
7.14882,5823
7.15358,4333
7.15835,4644
7.1631,4895
7.16787,5350
7.17263,4958
7.1774,5152
7.18215,5761
7.18692,4783
7.19168,4697
7.19643,5544
7.2012,5060
7.20597,5461
7.21073,6155
7.21548,5628
7.22025,5855
7.22502,5230
7.22978,5536
7.23453,6076
7.2393,5489
7.24407,5380
7.24882,5524
7.25358,5817
7.25835,5432
7.26312,5508
7.26787,5833
7.27263,4894
7.2774,4813
7.28215,5948
7.28692,5223
7.29168,4888
7.29645,6198
7.3012,5227
7.30597,4448
7.31073,5720
7.31548,5172
7.32025,5118
7.32502,5033
7.32978,4839
7.33453,5774
7.3393,5210
7.34407,5577
7.34882,5461
7.35358,5351
7.35835,4967
7.36312,4758
7.36787,5220
7.37263,5313
7.3774,5422
7.38217,5019
7.38692,6209
7.39168,5681
7.39645,4878
7.4012,4782
7.40597,5380
7.41073,5959
7.4155,4207
7.42025,4373
7.42502,5349
7.42978,5074
7.43453,4886
7.4393,5157
7.44407,5679
7.44883,5848
7.45358,5368
7.45835,5574
7.46312,5621
7.46787,6033
7.47263,5274
7.4774,5959
7.48217,6396
7.48692,5884
7.49168,5039
7.49645,5759
7.5012,5799
7.50597,5340
7.51073,5463
7.5155,5457
7.52025,6108
7.52502,5278
7.52978,5116
7.53453,5969
7.5393,6108
7.54407,5695
7.54883,5504
7.55358,5207
7.55835,5707
7.56312,4960
7.56788,5890
7.57263,5665
7.5774,5235
7.58217,5031
7.58692,5251
7.59168,5179
7.59645,5179
7.60122,4889
7.60597,5333
7.61073,5369
7.6155,5471
7.62025,5881
7.62502,5624
7.62978,5329
7.63455,5488
7.6393,5358
7.64407,5685
7.64883,4946
7.65358,5528
7.65835,4991
7.66312,5563
7.66788,4481
7.67263,5576
7.6774,4994
7.68217,6421
7.68692,4983
7.69168,5304
7.69645,5096
7.70122,5134
7.70597,6080
7.71073,5383
7.7155,5220
7.72027,5931
7.72502,5539
7.72978,5765
7.73455,5481
7.7393,5348
7.74407,5890
7.74883,5999
7.7536,5337
7.75835,5549
7.76312,5565
7.76788,6080
7.77263,6132
7.7774,5606
7.78217,5535
7.78693,5809
7.79168,5624
7.79645,5271
7.80122,5735
7.80597,5169
7.81073,5023
7.8155,5589
7.82027,5327
7.82502,4913
7.82978,5847
7.83455,5678
7.8393,5038
7.84407,6248
7.84883,4453
7.8536,5999
7.85835,5249
7.86312,4948
7.86788,6054
7.87263,5678
7.8774,5275
7.88217,5986
7.88693,4744
7.89168,5627
7.89645,5973
7.90122,5870
7.90598,5112
7.91073,5475
7.9155,4849
7.92027,6018
7.92502,5388
7.92978,5188
7.93455,5159
7.93932,5172
7.94407,6261
7.94883,5136
7.9536,5760
7.95835,5671
7.96312,4844
7.96788,5543
7.97265,5092
7.9774,5514
7.98217,5936
7.98693,5239
7.99168,5113
7.99645,5011
8.00122,5773
8.00598,7239
8.01073,5860
8.0155,5533
8.02027,5890
8.02502,6526
8.02978,5639
8.03455,5770
8.03932,5744
8.04407,5623
8.04883,5478
8.0536,5345
8.05837,4793
8.06312,5359
8.06788,5550
8.07265,5976
8.0774,5712
8.08217,5457
8.08693,5584
8.0917,5507
8.09645,5048
8.10122,5500
8.10598,4844
8.11073,4870
8.1155,4267
8.12027,5629
8.12503,5200
8.12978,5400
8.13455,5659
8.13932,5238
8.14407,5879
8.14883,5454
8.1536,5071
8.15837,6075
8.16312,4787
8.16788,5146
8.17265,5581
8.1774,5401
8.18217,5154
8.18693,5637
8.1917,5728
8.19645,6216
8.20122,5215
8.20598,5359
8.21073,5718
8.2155,6328
8.22027,5480
8.22503,4828
8.22978,5626
8.23455,5212
8.23932,5125
8.24408,6248
8.24883,5812
8.2536,6012
8.25837,5501
8.26312,4444
8.26788,5391
8.27265,5556
8.27742,5887
8.28217,5420
8.28693,5424
8.2917,5350
8.29645,5634
8.30122,5674
8.30598,6427
8.31075,5380
8.3155,5455
8.32027,5313
8.32503,5325
8.32978,5874
8.33455,5144
8.33932,5073
8.34408,5586
8.34883,5896
8.3536,5134
8.35837,5338
8.36312,5628
8.36788,5409
8.37265,5628
8.37742,4791
8.38217,5382
8.38693,5471
8.3917,5409
8.39645,4807
8.40122,4838
8.40598,5632
8.41075,5359
8.4155,5326
8.42027,6063
8.42503,5362
8.4298,4965
8.43455,5321
8.43932,6236
8.44408,5991
8.44883,5425
8.4536,5490
8.45837,5169
8.46313,5993
8.46788,5304
8.47265,5505
8.47742,5290
8.48217,5350
8.48693,5191
8.4917,5169
8.49647,6521
8.50122,5312
8.50598,5103
8.51075,5947
8.5155,5718
8.52027,5917
8.52503,5971
8.5298,5194
8.53455,5188
8.53932,5626
8.54408,5389
8.54883,5622
8.5536,5968
8.55837,5510
8.56313,4801
8.56788,4914
8.57265,5062
8.57742,5720
8.58218,4939
8.58693,6151
8.5917,6138
8.59647,4501
8.60122,4910
8.60598,4867
8.61075,5889
8.61552,5438
8.62027,5231
8.62503,5218
8.6298,5842
8.63455,5245
8.63932,5910
8.64408,5466
8.64885,5375
8.6536,5430
8.65837,5324
8.66313,5284
8.66788,5842
8.67265,5728
8.67742,5259
8.68218,5512
8.68693,5407
8.6917,6099
8.69647,5302
8.70122,5020
8.70598,5787
8.71075,5603
8.71552,4954
8.72027,6102
8.72503,5337
8.7298,5638
8.73455,5789
8.73932,5095
8.74408,5623
8.74885,5986
8.7536,5308
8.75837,5914
8.76313,5425
8.7679,4797
8.77265,5692
8.77742,6096
8.78218,5537
8.78693,6548
8.7917,5679
8.79647,5689
8.80123,6633
8.80598,4387
8.81075,5390
8.81552,5856
8.82027,5761
8.82503,5772
8.8298,5198
8.83457,5855
8.83932,5012
8.84408,5506
8.84885,5561
8.8536,5812
8.85837,5300
8.86313,5380
8.8679,5711
8.87265,6592
8.87742,5217
8.88218,5479
8.88693,5462
8.8917,5796
8.89647,5328
8.90123,5662
8.90598,5125
8.91075,5173
8.91552,5245
8.92028,5105
8.92503,6060
8.9298,5237
8.93457,5584
8.93932,4798
8.94408,5592
8.94885,5581
8.95362,5455
8.95837,5259
8.96313,5978
8.9679,5746
8.97265,5793
8.97742,5910
8.98218,4753
8.98695,5797
8.9917,5817
8.99647,5682
9.00123,5729
9.00598,5965
9.01075,6110
9.01552,6200
9.02028,4895
9.02503,5197
9.0298,5917
9.03457,5078
9.03932,6738
9.04408,4951
9.04885,5492
9.05362,5307
9.05837,5496
9.06313,5543
9.0679,5243
9.07265,5627
9.07742,5319
9.08218,5947
9.08695,6010
9.0917,6227
9.09647,5386
9.10123,5117
9.106,5645
9.11075,4968
9.11552,6081
9.12028,5138
9.12503,5674
9.1298,5699
9.13457,6003
9.13933,5106
9.14408,6125
9.14885,5485
9.15362,5465
9.15837,5327
9.16313,5477
9.1679,4954
9.17267,4978
9.17742,5744
9.18218,4992
9.18695,5792
9.1917,5185
9.19647,6242
9.20123,5654
9.206,5836
9.21075,5499
9.21552,5700
9.22028,5392
9.22503,5411
9.2298,5959
9.23457,5563
9.23933,5335
9.24408,5757
9.24885,5671
9.25362,5667
9.25837,5471
9.26313,4926
9.2679,4940
9.27267,4964
9.27742,5518
9.28218,4676
9.28695,5137
9.29172,5316
9.29647,5551
9.30123,5033
9.306,5262
9.31075,4858
9.31552,5462
9.32028,5024
9.32505,5924
9.3298,5112
9.33457,6129
9.33933,5578
9.34408,5746
9.34885,5506
9.35362,5542
9.35838,5250
9.36313,5829
9.3679,5208
9.37267,5421
9.37742,5761
9.38218,4512
9.38695,5467
9.39172,6009
9.39647,6135
9.40123,5464
9.406,5138
9.41075,5182
9.41552,4629
9.42028,5064
9.42505,5859
9.4298,5094
9.43457,6037
9.43933,6281
9.4441,5163
9.44885,5462
9.45362,5434
9.45838,5737
9.46313,4135
9.4679,5839
9.47267,5413
9.47743,5840
9.48218,4899
9.48695,5364
9.49172,5240
9.49647,5456
9.50123,6003
9.506,5073
9.51077,5484
9.51552,5707
9.52028,5354
9.52505,5912
9.5298,5770
9.53457,4653
9.53933,5500
9.5441,5575
9.54885,5931
9.55362,5288
9.55838,5181
9.56313,6175
9.5679,6136
9.57267,5523
9.57743,5470
9.58218,5111
9.58695,5947
9.59172,5359
9.59647,4736
9.60123,5579
9.606,5144
9.61077,5750
9.61552,5963
9.62028,5282
9.62505,5515
9.62982,5859
9.63457,5457
9.63933,6161
9.6441,5663
9.64885,5332
9.65362,5720
9.65838,5152
9.66315,5423
9.6679,5095
9.67267,5217
9.67743,5596
9.68218,5454
9.68695,5134
9.69172,5957
9.69648,4944
9.70123,5350
9.706,5761
9.71077,5481
9.71552,4704
9.72028,5948
9.72505,5557
9.72982,5515
9.73457,5380
9.73933,5399
9.7441,6323
9.74885,4548
9.75362,5232
9.75838,5489
9.76315,6103
9.7679,5854
9.77267,5290
9.77743,5468
9.7822,5384
9.78695,5463
9.79172,5575
9.79648,5315
9.80123,5021
9.806,5499
9.81077,4813
9.81553,5397
9.82028,5870
9.82505,4718
9.82982,4960
9.83457,5812
9.83933,5012
9.8441,5380
9.84887,5844
9.85362,5867
9.85838,5619
9.86315,6345
9.8679,5648
9.87267,6155
9.87743,5432
9.8822,4843
9.88695,5661
9.89172,5181
9.89648,5632
9.90123,6251
9.906,5961
9.91077,4896
9.91553,4680
9.92028,5439
9.92505,5656
9.92982,6038
9.93457,5498
9.93933,5542
9.9441,5113
9.94887,5504
9.95362,5613
9.95838,5566
9.96315,5078
9.96792,5938
9.97267,5417
9.97743,4970
9.9822,4710
9.98695,5425
9.99172,4513
9.99648,5781
10.0013,5081
10.006,5491
10.0108,5674
10.0155,5035
10.0203,5638
10.0251,5523
10.0298,5684
10.0346,5259
10.0393,5719
10.0441,4568
10.0489,5247
10.0536,5141
10.0584,5403
10.0632,5815
10.0679,5204
10.0727,5902
10.0774,5307
10.0822,5402
10.087,5436
10.0917,4513
10.0965,5207
10.1013,5161
10.106,5642
10.1108,5277
10.1155,6161
10.1203,5132
10.1251,5402
10.1298,5055
10.1346,5461
10.1393,5845
10.1441,6327
10.1489,5779
10.1536,5874
10.1584,5381
10.1632,5932
10.1679,5452
10.1727,6615
10.1774,7407
10.1822,12412
10.187,20946
10.1917,36316
10.1965,61488
10.2013,90010
10.206,131522
10.2108,200048
10.2155,273242
10.2203,384241
10.2251,539149
10.2298,744391
10.2346,1011487
10.2393,1360285
10.2441,1776528
10.2489,2219866
10.2536,2646929
10.2584,3089198
10.2632,3495465
10.2679,3667085
10.2727,3387873
10.2774,2581624
10.2822,1809683
10.287,1303609
10.2917,993179
10.2965,792543
10.3013,659541
10.306,557318
10.3108,491282
10.3155,427916
10.3203,379459
10.3251,345903
10.3298,308816
10.3346,281065
10.3394,257343
10.3441,235958
10.3489,217553
10.3536,203294
10.3584,181795
10.3632,172959
10.3679,157989
10.3727,151207
10.3774,140008
10.3822,132396
10.387,124634
10.3917,114982
10.3965,108464
10.4013,104186
10.406,97057
10.4108,92721
10.4155,86031
10.4203,83584
10.4251,79304
10.4298,75877
10.4346,70906
10.4394,67367
10.4441,62608
10.4489,62165
10.4536,59344
10.4584,55710
10.4632,55297
10.4679,52197
10.4727,51052
10.4774,47008
10.4822,47753
10.487,41787
10.4917,40624
10.4965,39259
10.5013,38647
10.506,37115
10.5108,33913
10.5155,33162
10.5203,32337
10.5251,30570
10.5298,29378
10.5346,28064
10.5394,26693
10.5441,27649
10.5489,26254
10.5536,24311
10.5584,26008
10.5632,23051
10.5679,21581
10.5727,23915
10.5774,20707
10.5822,20829
10.587,21220
10.5917,20942
10.5965,19318
10.6013,19324
10.606,18020
10.6108,17673
10.6155,16826
10.6203,16109
10.6251,16953
10.6298,17480
10.6346,15025
10.6394,16227
10.6441,14373
10.6489,13716
10.6536,14977
10.6584,14296
10.6632,14549
10.6679,14115
10.6727,13260
10.6775,13270
10.6822,13142
10.687,12778
10.6917,13060
10.6965,12402
10.7013,12350
10.706,11756
10.7108,11037
10.7155,11191
10.7203,10555
10.7251,11233
10.7298,11454
10.7346,11754
10.7394,11213
10.7441,9634
10.7489,11322
10.7536,10275
10.7584,10094
10.7632,9833
10.7679,9651
10.7727,9192
10.7775,9685
10.7822,10070
10.787,10097
10.7917,9615
10.7965,8851
10.8013,10354
10.806,8476
10.8108,8778
10.8155,9837
10.8203,9295
10.8251,9755
10.8298,8968
10.8346,8804
10.8394,8575
10.8441,8233
10.8489,9240
10.8536,8203
10.8584,8441
10.8632,8451
10.8679,8008
10.8727,8952
10.8775,7556
10.8822,7613
10.887,7515
10.8917,8795
10.8965,7304
10.9013,8072
10.906,7517
10.9108,8836
10.9155,6983
10.9203,7695
10.9251,7455
10.9298,7846
10.9346,8723
10.9394,7652
10.9441,8645
10.9489,7517
10.9536,7913
10.9584,7722
10.9632,6744
10.9679,7373
10.9727,7321
10.9775,7756
10.9822,7316
10.987,7852
10.9917,7541
10.9965,7587
11.0013,7946
11.006,7190
11.0108,7762
11.0156,6046
11.0203,7672
11.0251,7529
11.0298,6556
11.0346,6976
11.0394,7090
11.0441,5616
11.0489,7101
11.0536,7493
11.0584,7934
11.0632,6003
11.0679,6962
11.0727,7323
11.0775,6612
11.0822,6503
11.087,5902
11.0917,6709
11.0965,7000
11.1013,6989
11.106,6406
11.1108,7124
11.1156,6931
11.1203,6625
11.1251,7295
11.1298,6271
11.1346,5802
11.1394,7348
11.1441,6353
11.1489,6436
11.1536,7159
11.1584,7271
11.1632,6036
11.1679,7368
11.1727,6278
11.1775,5799
11.1822,5321
11.187,6983
11.1917,7269
11.1965,5892
11.2013,6342
11.206,6316
11.2108,6818
11.2156,6198
11.2203,6342
11.2251,6286
11.2298,6084
11.2346,6982
11.2394,6830
11.2441,6258
11.2489,6869
11.2536,5795
11.2584,6387
11.2632,5886
11.2679,6789
11.2727,5895
11.2775,6419
11.2822,6667
11.287,6628
11.2917,6438
11.2965,7268
11.3013,6173
11.306,6508
11.3108,6484
11.3156,5486
11.3203,6485
11.3251,7135
11.3298,6224
11.3346,5702
11.3394,6138
11.3441,6291
11.3489,5313
11.3537,6174
11.3584,6459
11.3632,6196
11.3679,6702
11.3727,6232
11.3775,6248
11.3822,6575
11.387,5726
11.3917,6777
11.3965,5781
11.4013,6669
11.406,6574
11.4108,6511
11.4156,6266
11.4203,7201
11.4251,6561
11.4298,5989
11.4346,7227
11.4394,6710
11.4441,5802
11.4489,5514
11.4537,5791
11.4584,5908
11.4632,6181
11.4679,6013
11.4727,6758
11.4775,6016
11.4822,5651
11.487,6155
11.4917,6079
11.4965,6014
11.5013,5847
11.506,6469
11.5108,5881
11.5156,6241
11.5203,6915
11.5251,5924
11.5298,6346
11.5346,6277
11.5394,6202
11.5441,5394
11.5489,6081
11.5537,6271
11.5584,6141
11.5632,6504
11.5679,6368
11.5727,6599
11.5775,5722
11.5822,6178
11.587,7064
11.5917,5829
11.5965,6656
11.6013,5331
11.606,7103
11.6108,5413
11.6156,5739
11.6203,5946
11.6251,5436
11.6298,6511
11.6346,5685
11.6394,5728
11.6441,5703
11.6489,6195
11.6537,6118
11.6584,5860
11.6632,5844
11.6679,5661
11.6727,5902
11.6775,6580
11.6822,5660
11.687,5775
11.6918,5136
11.6965,6696
11.7013,5927
11.706,5755
11.7108,5012
11.7156,5558
11.7203,5368
11.7251,5742
11.7298,6303
11.7346,5882
11.7394,6475
11.7441,5527
11.7489,5331
11.7537,5957
11.7584,7268
11.7632,5576
11.7679,5787
11.7727,6238
11.7775,6292
11.7822,5676
11.787,5926
11.7918,5811
11.7965,5374
11.8013,4904
11.806,5721
11.8108,5966
11.8156,6034
11.8203,5852
11.8251,5246
11.8298,5122
11.8346,5760
11.8394,5544
11.8441,6016
11.8489,5936
11.8537,5728
11.8584,5408
11.8632,5119
11.8679,6159
11.8727,6356
11.8775,6220
11.8822,5950
11.887,5696
11.8918,5426
11.8965,6991
11.9013,5191
11.906,5528
11.9108,5710
11.9156,6144
11.9203,6268
11.9251,6120
11.9298,5456
11.9346,5468
11.9394,5706
11.9441,5060
11.9489,5432
11.9537,6260
11.9584,5522
11.9632,6107
11.9679,6739
11.9727,5621
11.9775,6108
11.9822,6011
11.987,5762
11.9918,6401
11.9965,5448
12.0013,6136
12.006,5913
12.0108,5520
12.0156,5332
12.0203,5479
12.0251,6041
12.0299,6644
12.0346,6068
12.0394,6167
12.0441,5699
12.0489,6012
12.0537,5361
12.0584,5184
12.0632,6546
12.0679,5270
12.0727,5908
12.0775,5858
12.0822,5894
12.087,6284
12.0918,5668
12.0965,5843
12.1013,5369
12.106,5665
12.1108,5802
12.1156,6079
12.1203,5231
12.1251,5794
12.1299,5433
12.1346,5203
12.1394,5224
12.1441,5199
12.1489,5396
12.1537,5821
12.1584,5868
12.1632,5571
12.1679,6387
12.1727,5781
12.1775,5799
12.1822,5370
12.187,7053
12.1918,5804
12.1965,5618
12.2013,6208
12.206,5501
12.2108,6442
12.2156,5729
12.2203,5777
12.2251,5712
12.2299,5560
12.2346,5966
12.2394,5844
12.2441,5279
12.2489,5712
12.2537,5432
12.2584,5570
12.2632,6423
12.2679,5614
12.2727,5500
12.2775,5475
12.2822,6089
12.287,5683
12.2918,6007
12.2965,5710
12.3013,5209
12.306,6015
12.3108,5248
12.3156,4873
12.3203,6413
12.3251,5766
12.3299,5341
12.3346,4866
12.3394,5563
12.3441,5633
12.3489,5651
12.3537,5871
12.3584,5285
12.3632,5823
12.368,5605
12.3727,6015
12.3775,6026
12.3822,5691
12.387,5236
12.3918,5986
12.3965,5349
12.4013,5352
12.406,5204
12.4108,5255
12.4156,5728
12.4203,6125
12.4251,6393
12.4299,6002
12.4346,5662
12.4394,5981
12.4441,6076
12.4489,5681
12.4537,5834
12.4584,5531
12.4632,5808
12.468,5474
12.4727,6171
12.4775,5047
12.4822,5751
12.487,5855
12.4918,5156
12.4965,5967
12.5013,5180
12.506,5611
12.5108,6402
12.5156,5834
12.5203,5240
12.5251,6965
12.5299,6119
12.5346,5833
12.5394,5433
12.5441,5319
12.5489,5383
12.5537,6438
12.5584,5522
12.5632,5252
12.568,5573
12.5727,5583
12.5775,5806
12.5822,5605
12.587,5558
12.5918,5920
12.5965,5399
12.6013,6564
12.606,5850
12.6108,5687
12.6156,5701
12.6203,6351
12.6251,5432
12.6299,5589
12.6346,5478
12.6394,5531
12.6441,5613
12.6489,5639
12.6537,5995
12.6584,5812
12.6632,5381
12.668,5540
12.6727,5363
12.6775,6144
12.6822,5017
12.687,5468
12.6918,5859
12.6965,5639
12.7013,5039
12.7061,5630
12.7108,5926
12.7156,5233
12.7203,5365
12.7251,6085
12.7299,6037
12.7346,5576
12.7394,6168
12.7441,5631
12.7489,5689
12.7537,5781
12.7584,6152
12.7632,5371
12.768,5473
12.7727,5449
12.7775,4972
12.7822,6081
12.787,5561
12.7918,4963
12.7965,5861
12.8013,6150
12.8061,5847
12.8108,6360
12.8156,5340
12.8203,5320
12.8251,5367
12.8299,6029
12.8346,5230
12.8394,5984
12.8441,5717
12.8489,5295
12.8537,6246
12.8584,5496
12.8632,5291
12.868,5248
12.8727,5569
12.8775,5073
12.8822,5272
12.887,5340
12.8918,5547
12.8965,5378
12.9013,5757
12.9061,5854
12.9108,5510
12.9156,5738
12.9203,6638
12.9251,5309
12.9299,6910
12.9346,6179
12.9394,5736
12.9441,5922
12.9489,5149
12.9537,5772
12.9584,5666
12.9632,6546
12.968,5967
12.9727,4990
12.9775,5536
12.9822,5955
12.987,6177
12.9918,4935
12.9965,5801
13.0013,5611
13.0061,5672
13.0108,5963
13.0156,5469
13.0203,5498
13.0251,5392
13.0299,5733
13.0346,5250
13.0394,5624
13.0442,6050
13.0489,5411
13.0537,5297
13.0584,5772
13.0632,5709
13.068,6150
13.0727,5158
13.0775,5316
13.0822,5322
13.087,5564
13.0918,6223
13.0965,6399
13.1013,5762
13.1061,5527
13.1108,5892
13.1156,6132
13.1203,5578
13.1251,5699
13.1299,4815
13.1346,5222
13.1394,5852
13.1442,5697
13.1489,5396
13.1537,5000
13.1584,5109
13.1632,5296
13.168,5547
13.1727,5065
13.1775,5643
13.1822,5779
13.187,5147
13.1918,5618
13.1965,5622
13.2013,5257
13.2061,6215
13.2108,5254
13.2156,5715
13.2203,5377
13.2251,5311
13.2299,5766
13.2346,5563
13.2394,5389
13.2442,6199
13.2489,6038
13.2537,5618
13.2584,5570
13.2632,6406
13.268,5611
13.2727,5610
13.2775,6532
13.2822,4915
13.287,5580
13.2918,5417
13.2965,4887
13.3013,5112
13.3061,5915
13.3108,5641
13.3156,6147
13.3203,5464
13.3251,5147
13.3299,5770
13.3346,5171
13.3394,5547
13.3442,5582
13.3489,5233
13.3537,5859
13.3584,5965
13.3632,5441
13.368,5371
13.3727,5516
13.3775,5117
13.3823,4802
13.387,4841
13.3918,6160
13.3965,6599
13.4013,5730
13.4061,5917
13.4108,5915
13.4156,6081
13.4203,5788
13.4251,5783
13.4299,5729
13.4346,5562
13.4394,5707
13.4442,6225
13.4489,5537
13.4537,5604
13.4584,6302
13.4632,5757
13.468,5766
13.4727,5407
13.4775,6024
13.4823,4858
13.487,5223
13.4918,6094
13.4965,6043
13.5013,5237
13.5061,5102
13.5108,5512
13.5156,4786
13.5203,5158
13.5251,5107
13.5299,5653
13.5346,5141
13.5394,5140
13.5442,6132
13.5489,5841
13.5537,5324
13.5584,5467
13.5632,5837
13.568,6258
13.5727,5344
13.5775,5703
13.5823,5389
13.587,5370
13.5918,5411
13.5965,6261
13.6013,5253
13.6061,5375
13.6108,5210
13.6156,5435
13.6203,5175
13.6251,5327
13.6299,5386
13.6346,6125
13.6394,6086
13.6442,5551
13.6489,5838
13.6537,5542
13.6584,6134
13.6632,4833
13.668,5668
13.6727,6197
13.6775,4949
13.6823,5053
13.687,5540
13.6918,5511
13.6965,5461
13.7013,5480
13.7061,5056
13.7108,5205
13.7156,5498
13.7204,4761
13.7251,5059
13.7299,6042
13.7346,5571
13.7394,5432
13.7442,5070
13.7489,5904
13.7537,4938
13.7584,5236
13.7632,4858
13.768,6097
13.7727,5172
13.7775,5651
13.7823,5209
13.787,5846
13.7918,5535
13.7965,4961
13.8013,5732
13.8061,4924
13.8108,5208
13.8156,6265
13.8204,5416
13.8251,5266
13.8299,5291
13.8346,5830
13.8394,5615
13.8442,4856
13.8489,5553
13.8537,5561
13.8584,5492
13.8632,5439
13.868,5561
13.8727,6232
13.8775,5303
13.8823,6515
13.887,5801
13.8918,5684
13.8965,5186
13.9013,5196
13.9061,5469
13.9108,5379
13.9156,5658
13.9204,5405
13.9251,5599
13.9299,4954
13.9346,5711
13.9394,5631
13.9442,5747
13.9489,5573
13.9537,5279
13.9584,5572
13.9632,5533
13.968,5491
13.9727,6252
13.9775,5611
13.9823,5144
13.987,6084
13.9918,5870
13.9965,4506
14.0013,4838
14.0061,5531
14.0108,6329
14.0156,5607
14.0204,6406
14.0251,6082
14.0299,5959
14.0346,5412
14.0394,5174
14.0442,5922
14.0489,5853
14.0537,5600
14.0584,5153
14.0632,5689
14.068,5543
14.0727,5248
14.0775,5426
14.0823,6370
14.087,5655
14.0918,6039
14.0965,5350
14.1013,5872
14.1061,5832
14.1108,5263
14.1156,5401
14.1204,6239
14.1251,5061
14.1299,6238
14.1346,6078
14.1394,5103
14.1442,5810
14.1489,5910
14.1537,5028
14.1585,5530
14.1632,6212
14.168,5503
14.1727,5889
14.1775,5173
14.1823,5952
14.187,5549
14.1918,5610
14.1965,5611
14.2013,5950
14.2061,5534
14.2108,5085
14.2156,6177
14.2204,5779
14.2251,6054
14.2299,5666
14.2346,5849
14.2394,4944
14.2442,5753
14.2489,5077
14.2537,5243
14.2585,5452
14.2632,5580
14.268,5557
14.2727,5793
14.2775,5772
14.2823,5801
14.287,6056
14.2918,5350
14.2965,5201
14.3013,5664
14.3061,5506
14.3108,5361
14.3156,5390
14.3204,5527
14.3251,5568
14.3299,5817
14.3346,6132
14.3394,5543
14.3442,5719
14.3489,5647
14.3537,6537
14.3585,5991
14.3632,5452
14.368,4913
14.3727,4757
14.3775,5362
14.3823,5416
14.387,5492
14.3918,5280
14.3965,5522
14.4013,5926
14.4061,5885
14.4108,5834
14.4156,5691
14.4204,5889
14.4251,4912
14.4299,5839
14.4346,5695
14.4394,6085
14.4442,5524
14.4489,5925
14.4537,5570
14.4585,5639
14.4632,5557
14.468,5803
14.4727,5797
14.4775,5494
14.4823,5828
14.487,5747
14.4918,5353
14.4966,5762
14.5013,5732
14.5061,5352
14.5108,5390
14.5156,4995
14.5204,6025
14.5251,5248
14.5299,5276
14.5346,5225
14.5394,5946
14.5442,5977
14.5489,5341
14.5537,5386
14.5585,5229
14.5632,5073
14.568,4646
14.5727,5139
14.5775,5171
14.5823,5581
14.587,5246
14.5918,5436
14.5966,6625
14.6013,5865
14.6061,6073
14.6108,5846
14.6156,4993
14.6204,5893
14.6251,5155
14.6299,5255
14.6346,5261
14.6394,5684
14.6442,5803
14.6489,5891
14.6537,5186
14.6585,5067
14.6632,5874
