D:\MassHunter\GCMS\1\data\Victoria Marland\22FEB\220223014.D 23 Feb 22  06:48 pm
Start of data points
3.09165,594
3.09642,997
3.10117,761
3.10593,830
3.1107,725
3.11547,709
3.12022,867
3.12498,629
3.12975,582
3.1345,726
3.13927,1077
3.14403,900
3.1488,748
3.15355,712
3.15832,730
3.16308,1088
3.16783,703
3.1726,896
3.17737,1230
3.18213,788
3.18688,1208
3.19165,779
3.19642,842
3.20118,786
3.20593,808
3.2107,894
3.21547,908
3.22022,1397
3.22498,701
3.22975,885
3.23452,770
3.23927,695
3.24403,864
3.2488,1182
3.25355,1061
3.25832,687
3.26308,869
3.26785,756
3.2726,745
3.27737,617
3.28213,945
3.28688,710
3.29165,1086
3.29642,1047
3.30118,620
3.30593,630
3.3107,750
3.31547,884
3.32022,829
3.32498,548
3.32975,639
3.33452,849
3.33927,555
3.34403,870
3.3488,636
3.35355,808
3.35832,1000
3.36308,1111
3.36785,672
3.3726,742
3.37737,682
3.38213,789
3.3869,769
3.39165,710
3.39642,781
3.40118,772
3.40593,860
3.4107,904
3.41547,910
3.42023,920
3.42498,804
3.42975,882
3.43452,641
3.43927,635
3.44403,833
3.4488,1443
3.45357,1084
3.45832,657
3.46308,825
3.46785,665
3.4726,802
3.47737,774
3.48213,687
3.4869,705
3.49165,783
3.49642,516
3.50118,661
3.50593,702
3.5107,621
3.51547,707
3.52023,987
3.52498,569
3.52975,931
3.53452,917
3.53928,734
3.54403,768
3.5488,749
3.55357,855
3.55832,1029
3.56308,729
3.56785,576
3.57262,916
3.57737,757
3.58213,684
3.5869,983
3.59165,651
3.59642,806
3.60118,680
3.60595,942
3.6107,745
3.61547,1075
3.62023,757
3.62498,628
3.62975,828
3.63452,979
3.63928,714
3.64403,942
3.6488,1831
3.65357,2730
3.65832,1287
3.66308,1138
3.66785,672
3.67262,596
3.67737,632
3.68213,732
3.6869,879
3.69165,731
3.69642,592
3.70118,680
3.70595,781
3.7107,697
3.71547,514
3.72023,762
3.725,710
3.72975,611
3.73452,906
3.73928,786
3.74403,749
3.7488,621
3.75357,851
3.75833,559
3.76308,718
3.76785,632
3.77262,762
3.77737,778
3.78213,702
3.7869,960
3.79167,649
3.79642,661
3.80118,659
3.80595,711
3.8107,690
3.81547,836
3.82023,720
3.825,871
3.82975,925
3.83452,847
3.83928,614
3.84403,645
3.8488,610
3.85357,821
3.85833,660
3.86308,676
3.86785,706
3.87262,673
3.87738,788
3.88213,528
3.8869,524
3.89167,750
3.89642,793
3.90118,891
3.90595,456
3.91072,765
3.91547,725
3.92023,652
3.925,680
3.92975,816
3.93452,827
3.93928,828
3.94405,1073
3.9488,743
3.95357,511
3.95833,626
3.96308,856
3.96785,740
3.97262,673
3.97738,794
3.98213,912
3.9869,795
3.99167,701
3.99642,893
4.00118,888
4.00595,780
4.01072,954
4.01547,1076
4.02023,699
4.025,752
4.02975,803
4.03452,721
4.03928,954
4.04405,883
4.0488,791
4.05357,763
4.05833,772
4.0631,1037
4.06785,932
4.07262,757
4.07738,1095
4.08213,762
4.0869,707
4.09167,859
4.09643,881
4.10118,921
4.10595,816
4.11072,657
4.11547,761
4.12023,1127
4.125,671
4.12977,1011
4.13452,852
4.13928,844
4.14405,819
4.1488,634
4.15357,714
4.15833,878
4.1631,830
4.16785,920
4.17262,753
4.17738,1119
4.18213,898
4.1869,911
4.19167,845
4.19643,615
4.20118,775
4.20595,707
4.21072,1126
4.21548,661
4.22023,839
4.225,966
4.22977,969
4.23452,745
4.23928,933
4.24405,877
4.24882,1013
4.25357,990
4.25833,1060
4.2631,823
4.26785,751
4.27262,802
4.27738,706
4.28215,752
4.2869,967
4.29167,730
4.29643,696
4.30118,767
4.30595,978
4.31072,724
4.31548,902
4.32023,923
4.325,1075
4.32977,986
4.33452,768
4.33928,1054
4.34405,690
4.34882,684
4.35357,918
4.35833,963
4.3631,775
4.36785,897
4.37262,989
4.37738,881
4.38215,770
4.3869,1128
4.39167,882
4.39643,961
4.4012,898
4.40595,874
4.41072,869
4.41548,771
4.42023,1138
4.425,714
4.42977,1071
4.43453,1027
4.43928,895
4.44405,912
4.44882,921
4.45357,879
4.45833,654
4.4631,976
4.46787,834
4.47262,997
4.47738,1011
4.48215,1035
4.4869,823
4.49167,920
4.49643,857
4.5012,809
4.50595,845
4.51072,1015
4.51548,939
4.52023,1071
4.525,735
4.52977,1013
4.53453,960
4.53928,1010
4.54405,896
4.54882,1221
4.55357,794
4.55833,929
4.5631,663
4.56787,969
4.57262,921
4.57738,906
4.58215,1041
4.58692,945
4.59167,726
4.59643,1113
4.6012,689
4.60595,934
4.61072,970
4.61548,789
4.62025,1283
4.625,1034
4.62977,837
4.63453,939
4.63928,940
4.64405,1060
4.64882,826
4.65358,913
4.65833,836
4.6631,969
4.66787,944
4.67262,1171
4.67738,1189
4.68215,932
4.68692,1066
4.69167,1015
4.69643,958
4.7012,814
4.70595,1110
4.71072,1150
4.71548,1007
4.72025,788
4.725,905
4.72977,1026
4.73453,899
4.7393,1037
4.74405,1027
4.74882,749
4.75358,905
4.75833,1016
4.7631,947
4.76787,871
4.77263,798
4.77738,1135
4.78215,989
4.78692,846
4.79167,825
4.79643,1089
4.8012,1211
4.80597,892
4.81072,1040
4.81548,958
4.82025,1050
4.825,1004
4.82977,1123
4.83453,867
4.8393,1035
4.84405,1198
4.84882,900
4.85358,878
4.85833,980
4.8631,985
4.86787,1008
4.87263,1177
4.87738,1301
4.88215,803
4.88692,861
4.89167,1081
4.89643,912
4.9012,967
4.90597,812
4.91072,871
4.91548,1100
4.92025,999
4.92502,1070
4.92977,874
4.93453,1004
4.9393,1007
4.94405,953
4.94882,1090
4.95358,950
4.95835,855
4.9631,1057
4.96787,942
4.97263,1029
4.97738,1031
4.98215,1226
4.98692,899
4.99168,982
4.99643,995
5.0012,1132
5.00597,871
5.01072,914
5.01548,1250
5.02025,896
5.02502,912
5.02977,1026
5.03453,997
5.0393,882
5.04405,919
5.04882,1346
5.05358,1336
5.05835,1199
5.0631,1036
5.06787,1527
5.07263,1069
5.0774,1247
5.08215,932
5.08692,1142
5.09168,1436
5.09643,1184
5.1012,1022
5.10597,1175
5.11073,1164
5.11548,1125
5.12025,1058
5.12502,1252
5.12977,911
5.13453,1124
5.1393,1301
5.14407,851
5.14882,909
5.15358,1050
5.15835,1107
5.1631,1282
5.16787,2016
5.17263,2609
5.1774,1884
5.18215,1022
5.18692,1257
5.19168,858
5.19643,1069
5.2012,1133
5.20597,990
5.21073,1110
5.21548,1077
5.22025,1335
5.22502,1109
5.22977,966
5.23453,1178
5.2393,1066
5.24407,888
5.24882,1105
5.25358,1244
5.25835,1137
5.26312,817
5.26787,1277
5.27263,1090
5.2774,1317
5.28215,1327
5.28692,934
5.29168,1288
5.29645,1171
5.3012,1165
5.30597,1157
5.31073,1147
5.31548,1202
5.32025,807
5.32502,962
5.32978,1140
5.33453,1054
5.3393,1011
5.34407,1090
5.34882,968
5.35358,1039
5.35835,1335
5.36312,935
5.36787,1062
5.37263,1192
5.3774,988
5.38215,1255
5.38692,1258
5.39168,1246
5.39645,1409
5.4012,1176
5.40597,1396
5.41073,1133
5.4155,1473
5.42025,1296
5.42502,1020
5.42978,1065
5.43453,1315
5.4393,1181
5.44407,1313
5.44883,1198
5.45358,1119
5.45835,1172
5.46312,1294
5.46787,1251
5.47263,1519
5.4774,1263
5.48217,1662
5.48692,1307
5.49168,1555
5.49645,1399
5.5012,1423
5.50597,1385
5.51073,1480
5.5155,1193
5.52025,1214
5.52502,1450
5.52978,1286
5.53453,1490
5.5393,1459
5.54407,1469
5.54883,1470
5.55358,1522
5.55835,1174
5.56312,1400
5.56787,1069
5.57263,1384
5.5774,1520
5.58217,1611
5.58692,1278
5.59168,1339
5.59645,1708
5.60122,1360
5.60597,1389
5.61073,1267
5.6155,1673
5.62025,1280
5.62502,1231
5.62978,1345
5.63455,1222
5.6393,1495
5.64407,1235
5.64883,1506
5.65358,1184
5.65835,1347
5.66312,1369
5.66788,1244
5.67263,1349
5.6774,1531
5.68217,1061
5.68692,1390
5.69168,1436
5.69645,1320
5.70122,1313
5.70597,1525
5.71073,1101
5.7155,1327
5.72025,1446
5.72502,1538
5.72978,1480
5.73455,1357
5.7393,1543
5.74407,1177
5.74883,1643
5.75358,1715
5.75835,1301
5.76312,1173
5.76788,1347
5.77263,1560
5.7774,1692
5.78217,1387
5.78693,1375
5.79168,1130
5.79645,1091
5.80122,1670
5.80597,1586
5.81073,2269
5.8155,2276
5.82027,2101
5.82502,1482
5.82978,1591
5.83455,1460
5.8393,1485
5.84407,1570
5.84883,1176
5.8536,1320
5.85835,1484
5.86312,1327
5.86788,1276
5.87263,1667
5.8774,1518
5.88217,1600
5.88693,1508
5.89168,1673
5.89645,1271
5.90122,1740
5.90597,1819
5.91073,1448
5.9155,1516
5.92027,1662
5.92502,1804
5.92978,1430
5.93455,1675
5.93932,1442
5.94407,1683
5.94883,1543
5.9536,1477
5.95835,1655
5.96312,1808
5.96788,1700
5.97265,1677
5.9774,1458
5.98217,1483
5.98693,1869
5.99168,1641
5.99645,1629
6.00122,1753
6.00598,1189
6.01073,1268
6.0155,1614
6.02027,1587
6.02502,1421
6.02978,2058
6.03455,1645
6.03932,1986
6.04407,1682
6.04883,1317
6.0536,1219
6.05835,1739
6.06312,1692
6.06788,1497
6.07265,1694
6.0774,1562
6.08217,1673
6.08693,1486
6.09168,1825
6.09645,1762
6.10122,1860
6.10598,1502
6.11073,1950
6.1155,1767
6.12027,1918
6.12503,1622
6.12978,1752
6.13455,1839
6.13932,1674
6.14407,1481
6.14883,1670
6.1536,1942
6.15837,1834
6.16312,1461
6.16788,1730
6.17265,1591
6.1774,1836
6.18217,2302
6.18693,1521
6.1917,1912
6.19645,1790
6.20122,2187
6.20598,1861
6.21073,1662
6.2155,1832
6.22027,1869
6.22503,2128
6.22978,2448
6.23455,2345
6.23932,1770
6.24407,1932
6.24883,1703
6.2536,1991
6.25837,2040
6.26312,1842
6.26788,2065
6.27265,1961
6.27742,1863
6.28217,1883
6.28693,1919
6.2917,1865
6.29645,2108
6.30122,2236
6.30598,1991
6.31075,1953
6.3155,2125
6.32027,2036
6.32503,2446
6.32978,2364
6.33455,1964
6.33932,1923
6.34408,1959
6.34883,2189
6.3536,1929
6.35837,1871
6.36312,2432
6.36788,1815
6.37265,2045
6.37742,1937
6.38217,2013
6.38693,2376
6.3917,2336
6.39645,1980
6.40122,2475
6.40598,2075
6.41075,2591
6.4155,2114
6.42027,2330
6.42503,2379
6.42978,1949
6.43455,2381
6.43932,2601
6.44408,2476
6.44883,2721
6.4536,2059
6.45837,1988
6.46313,1984
6.46788,2938
6.47265,2641
6.47742,1912
6.48217,2217
6.48693,3208
6.4917,29884
6.49647,313130
6.50122,1937926
6.50598,6474779
6.51075,6423104
6.5155,2190262
6.52027,692398
6.52503,347309
6.5298,220411
6.53455,154852
6.53932,118309
6.54408,93142
6.54883,78044
6.5536,65979
6.55837,53045
6.56313,47200
6.56788,40432
6.57265,36456
6.57742,35277
6.58217,32818
6.58693,27317
6.5917,27179
6.59647,23786
6.60122,20768
6.60598,21305
6.61075,19739
6.61552,20081
6.62027,16123
6.62503,14953
6.6298,15459
6.63455,13386
6.63932,15474
6.64408,12535
6.64885,12278
6.6536,11433
6.65837,11702
6.66313,11447
6.66788,11234
6.67265,10349
6.67742,10300
6.68218,7644
6.68693,8602
6.6917,7352
6.69647,8056
6.70122,8488
6.70598,7019
6.71075,7535
6.71552,7356
6.72027,7406
6.72503,7642
6.7298,7780
6.73455,6842
6.73932,6557
6.74408,6945
6.74885,6424
6.7536,6241
6.75837,6371
6.76313,5879
6.76788,6052
6.77265,5780
6.77742,6655
6.78218,5997
6.78693,6482
6.7917,5216
6.79647,5732
6.80123,5204
6.80598,5632
6.81075,6160
6.81552,5625
6.82027,5206
6.82503,6009
6.8298,5158
6.83457,5091
6.83932,6514
6.84408,5205
6.84885,6407
6.8536,5920
6.85837,5086
6.86313,6057
6.8679,6273
6.87265,6230
6.87742,5559
6.88218,6183
6.88693,5088
6.8917,5619
6.89647,6263
6.90123,5624
6.90598,5883
6.91075,4354
6.91552,4919
6.92027,5336
6.92503,5131
6.9298,5978
6.93457,7124
6.93932,7307
6.94408,6096
6.94885,5255
6.9536,5649
6.95837,5063
6.96313,4627
6.9679,4526
6.97265,5712
6.97742,5068
6.98218,5358
6.98695,5707
6.9917,5721
6.99647,4902
7.00123,4962
7.00598,5710
7.01075,6226
7.01552,5428
7.02028,5450
7.02503,5328
7.0298,4929
7.03457,5440
7.03932,4911
7.04408,5753
7.04885,4667
7.05362,5331
7.05837,5278
7.06313,5292
7.0679,6028
7.07265,5026
7.07742,4784
7.08218,5427
7.08695,4795
7.0917,4820
7.09647,4911
7.10123,5430
7.10598,5153
7.11075,5489
7.11552,5048
7.12028,5327
7.12503,4892
7.1298,5096
7.13457,5415
7.13933,5104
7.14408,5193
7.14885,5334
7.15362,4831
7.15837,5155
7.16313,5314
7.1679,5347
7.17267,4856
7.17742,5149
7.18218,4811
7.18695,5034
7.1917,5434
7.19647,4614
7.20123,5700
7.206,4926
7.21075,4306
7.21552,5590
7.22028,5230
7.22503,5793
7.2298,5133
7.23457,5620
7.23933,5427
7.24408,5869
7.24885,5061
7.25362,5165
7.25837,5712
7.26313,5089
7.2679,4873
7.27267,5160
7.27742,5878
7.28218,4741
7.28695,5118
7.2917,4841
7.29647,5725
7.30123,5007
7.306,5433
7.31075,5411
7.31552,5560
7.32028,5301
7.32505,4557
7.3298,5420
7.33457,5081
7.33933,5568
7.34408,5405
7.34885,5520
7.35362,5471
7.35838,4988
7.36313,5365
7.3679,4885
7.37267,4808
7.37742,6166
7.38218,5434
7.38695,5511
7.39172,5733
7.39647,6324
7.40123,5051
7.406,5354
7.41075,6972
7.41552,4911
7.42028,5780
7.42505,5953
7.4298,5458
7.43457,5180
7.43933,5294
7.44408,5773
7.44885,5161
7.45362,5240
7.45838,5665
7.46313,5809
7.4679,6240
7.47267,5277
7.47743,5214
7.48218,4991
7.48695,5369
7.49172,4936
7.49647,5017
7.50123,4984
7.506,4651
7.51077,5126
7.51552,5643
7.52028,5050
7.52505,5449
7.5298,5387
7.53457,5660
7.53933,5250
7.5441,5804
7.54885,5187
7.55362,4492
7.55838,4870
7.56313,5148
7.5679,5640
7.57267,6059
7.57743,5460
7.58218,5974
7.58695,6383
7.59172,5418
7.59647,4659
7.60123,5582
7.606,5849
7.61077,6037
7.61552,4921
7.62028,6091
7.62505,5219
7.6298,5195
7.63457,6111
7.63933,5453
7.6441,5869
7.64885,5264
7.65362,4930
7.65838,5767
7.66315,5086
7.6679,5866
7.67267,5533
7.67743,5807
7.68218,6039
7.68695,5246
7.69172,6060
7.69648,5805
7.70123,5605
7.706,5294
7.71077,6121
7.71552,5461
7.72028,5644
7.72505,5815
7.72982,4976
7.73457,5801
7.73933,5086
7.7441,5718
7.74885,5427
7.75362,5329
7.75838,5083
7.76315,5605
7.7679,5328
7.77267,6396
7.77743,6139
7.78218,5761
7.78695,5251
7.79172,5102
7.79648,5741
7.80123,5389
7.806,5023
7.81077,5171
7.81552,5500
7.82028,5647
7.82505,5526
7.82982,5676
7.83457,5685
7.83933,6028
7.8441,4672
7.84887,5767
7.85362,5300
7.85838,5164
7.86315,4946
7.8679,5725
7.87267,5487
7.87743,5854
7.8822,6280
7.88695,6646
7.89172,7043
7.89648,6378
7.90123,6671
7.906,5870
7.91077,5176
7.91553,6003
7.92028,5233
7.92505,4798
7.92982,5266
7.93457,5369
7.93933,5929
7.9441,5391
7.94887,5332
7.95362,5318
7.95838,6430
7.96315,5168
7.9679,5695
7.97267,5663
7.97743,5948
7.9822,5382
7.98695,5377
7.99172,4959
7.99648,5770
8.00125,5772
8.006,5092
8.01077,5219
8.01553,5463
8.02028,5317
8.02505,5644
8.02982,5106
8.03458,6492
8.03933,5333
8.0441,5477
8.04887,4862
8.05362,5711
8.05838,4738
8.06315,5828
8.06792,5689
8.07267,5353
8.07743,6310
8.0822,5637
8.08695,6164
8.09172,6269
8.09648,5022
8.10125,5135
8.106,5057
8.11077,5498
8.11553,5411
8.12028,5681
8.12505,5477
8.12982,5497
8.13458,5190
8.13933,5283
8.1441,4796
8.14887,5751
8.15362,5508
8.15838,5272
8.16315,5246
8.16792,5672
8.17267,5924
8.17743,5262
8.1822,4958
8.18697,5521
8.19172,5195
8.19648,4746
8.20125,6008
8.206,5489
8.21077,5595
8.21553,6079
8.2203,5469
8.22505,5230
8.22982,5840
8.23458,5786
8.23933,5649
8.2441,5630
8.24887,5475
8.25363,4831
8.25838,5173
8.26315,6001
8.26792,6475
8.27267,5663
8.27743,5427
8.2822,5724
8.28697,6452
8.29172,5337
8.29648,4646
8.30125,5602
8.306,5391
8.31077,5573
8.31553,5332
8.3203,5510
8.32505,5969
8.32982,5868
8.33458,5174
8.33935,5585
8.3441,5824
8.34887,5389
8.35363,5406
8.35838,5168
8.36315,5763
8.36792,6096
8.37268,4797
8.37743,5600
8.3822,4859
8.38697,6226
8.39172,5882
8.39648,5764
8.40125,6320
8.40602,5511
8.41077,5219
8.41553,5311
8.4203,5603
8.42505,5734
8.42982,6001
8.43458,5856
8.43935,5289
8.4441,5884
8.44887,5301
8.45363,5637
8.45838,4751
8.46315,5501
8.46792,5271
8.47268,6022
8.47743,4983
8.4822,6089
8.48697,5769
8.49172,5640
8.49648,5274
8.50125,5787
8.50602,6209
8.51077,5875
8.51553,5875
8.5203,5306
8.52507,5236
8.52982,6121
8.53458,5282
8.53935,5262
8.5441,5533
8.54887,5376
8.55363,5800
8.5584,5289
8.56315,5879
8.56792,6109
8.57268,6434
8.57743,6262
8.5822,5629
8.58697,5417
8.59173,5621
8.59648,5566
8.60125,5124
8.60602,6160
8.61077,5694
8.61553,5637
8.6203,5277
8.62507,5177
8.62982,5581
8.63458,5555
8.63935,5804
8.6441,5774
8.64887,5599
8.65363,5946
8.6584,5706
8.66315,5193
8.66792,5935
8.67268,6649
8.67745,5403
8.6822,5152
8.68697,5286
8.69173,5963
8.69648,4874
8.70125,4789
8.70602,5273
8.71078,5543
8.71553,4909
8.7203,4600
8.72507,5176
8.72982,4950
8.73458,4737
8.73935,5137
8.74412,5957
8.74887,5779
8.75363,5460
8.7584,5397
8.76315,5636
8.76792,5901
8.77268,5113
8.77745,5370
8.7822,5683
8.78697,6000
8.79173,5567
8.79648,4618
8.80125,5032
8.80602,5599
8.81078,5246
8.81553,5879
8.8203,5989
8.82507,5362
8.82982,5077
8.83458,6044
8.83935,4685
8.84412,5481
8.84887,5923
8.85363,5558
8.8584,5874
8.86317,5095
8.86792,6152
8.87268,5555
8.87745,5841
8.8822,5578
8.88697,4846
8.89173,5307
8.8965,5439
8.90125,5052
8.90602,5556
8.91078,5596
8.91553,5856
8.9203,5735
8.92507,4489
8.92983,5293
8.93458,5414
8.93935,5547
8.94412,5677
8.94887,5979
8.95363,5718
8.9584,4609
8.96317,5979
8.96792,5647
8.97268,5160
8.97745,5304
8.9822,5008
8.98697,5853
8.99173,6163
8.9965,5790
9.00125,5655
9.00602,5634
9.01078,5468
9.01553,5686
9.0203,5084
9.02507,5276
9.02983,5899
9.03458,5846
9.03935,5602
9.04412,5761
9.04888,5126
9.05363,5445
9.0584,4574
9.06317,5652
9.06792,5546
9.07268,5186
9.07745,4874
9.08222,5779
9.08697,6377
9.09173,5175
9.0965,5639
9.10125,5582
9.10602,5650
9.11078,5293
9.11555,5335
9.1203,5124
9.12507,4717
9.12983,5796
9.13458,6204
9.13935,5265
9.14412,5588
9.14888,4878
9.15363,5604
9.1584,5547
9.16317,5362
9.16792,5428
9.17268,6560
9.17745,5246
9.18222,5470
9.18697,6040
9.19173,5213
9.1965,6547
9.20127,5924
9.20602,6222
9.21078,5689
9.21555,4804
9.2203,5453
9.22507,5029
9.22983,5398
9.2346,5807
9.23935,5633
9.24412,5214
9.24888,6068
9.25363,4914
9.2584,5701
9.26317,5242
9.26793,5103
9.27268,5181
9.27745,5696
9.28222,5577
9.28697,5496
9.29173,5692
9.2965,5452
9.30127,5072
9.30602,5136
9.31078,5276
9.31555,5355
9.3203,5471
9.32507,5239
9.32983,5878
9.3346,5431
9.33935,5661
9.34412,4892
9.34888,5760
9.35363,5437
9.3584,5058
9.36317,5425
9.36793,6352
9.37268,5497
9.37745,4920
9.38222,4772
9.38698,5955
9.39173,5559
9.3965,5742
9.40127,5125
9.40602,6160
9.41078,5979
9.41555,5949
9.42032,5760
9.42507,5790
9.42983,5751
9.4346,5563
9.43935,5330
9.44412,6192
9.44888,5081
9.45365,5744
9.4584,5557
9.46317,5641
9.46793,5740
9.47268,6016
9.47745,5920
9.48222,6105
9.48698,5876
9.49173,5940
9.4965,5134
9.50127,5701
9.50602,5114
9.51078,5241
9.51555,5410
9.52032,5805
9.52507,5351
9.52983,5465
9.5346,5265
9.53937,5266
9.54412,5940
9.54888,4948
9.55365,4962
9.5584,6314
9.56317,4686
9.56793,5215
9.5727,5617
9.57745,5111
9.58222,5616
9.58698,5873
9.59173,5033
9.5965,5825
9.60127,5190
9.60603,5735
9.61078,5602
9.61555,5393
9.62032,5411
9.62507,6097
9.62983,5836
9.6346,5675
9.63937,6310
9.64412,4977
9.64888,6047
9.65365,4784
9.6584,5190
9.66317,5380
9.66793,6274
9.6727,5688
9.67745,5064
9.68222,5319
9.68698,5438
9.69173,5462
9.6965,5869
9.70127,5500
9.70603,5663
9.71078,4904
9.71555,5669
9.72032,5303
9.72508,5585
9.72983,5468
9.7346,5869
9.73937,5604
9.74412,5742
9.74888,5199
9.75365,4964
9.75842,5616
9.76317,5657
9.76793,5797
9.7727,5565
9.77745,5465
9.78222,6121
9.78698,4576
9.79175,5456
9.7965,5261
9.80127,5713
9.80603,4993
9.81078,5357
9.81555,5856
9.82032,5848
9.82508,4859
9.82983,5235
9.8346,5329
9.83937,5361
9.84412,5656
9.84888,5365
9.85365,5133
9.85842,5992
9.86317,5417
9.86793,5534
9.8727,6250
9.87747,5749
9.88222,5731
9.88698,5881
9.89175,5205
9.8965,5529
9.90127,5224
9.90603,5225
9.9108,5981
9.91555,5032
9.92032,5514
9.92508,5401
9.92983,5562
9.9346,5674
9.93937,5384
9.94413,5979
9.94888,5844
9.95365,5572
9.95842,4981
9.96317,4978
9.96793,5669
9.9727,4992
9.97747,5501
9.98222,5462
9.98698,5418
9.99175,5722
9.9965,5490
10.0013,5521
10.006,5348
10.0108,6104
10.0156,5421
10.0203,5414
10.0251,5177
10.0298,5130
10.0346,5079
10.0394,5243
10.0441,5420
10.0489,5942
10.0537,5570
10.0584,4849
10.0632,5596
10.0679,4932
10.0727,5484
10.0775,5087
10.0822,6014
10.087,5474
10.0918,5747
10.0965,5454
10.1013,5971
10.106,5560
10.1108,4896
10.1156,4871
10.1203,5845
10.1251,4897
10.1299,5312
10.1346,5095
10.1394,4954
10.1441,5744
10.1489,6030
10.1537,5222
10.1584,5096
10.1632,4714
10.1679,4676
10.1727,5955
10.1775,8140
10.1822,14127
10.187,22976
10.1918,40799
10.1965,60646
10.2013,91844
10.206,121824
10.2108,173831
10.2156,230321
10.2203,299428
10.2251,381902
10.2299,449194
10.2346,482259
10.2394,459116
10.2441,389095
10.2489,301933
10.2537,238865
10.2584,187487
10.2632,148180
10.2679,126453
10.2727,107563
10.2775,93242
10.2822,80300
10.287,70125
10.2918,64559
10.2965,55854
10.3013,52246
10.306,47520
10.3108,42405
10.3156,40076
10.3203,37666
10.3251,35597
10.3299,30831
10.3346,29580
10.3394,26058
10.3441,25603
10.3489,25161
10.3537,23235
10.3584,20354
10.3632,20108
10.3679,20732
10.3727,18967
10.3775,18034
10.3822,16911
10.387,16215
10.3918,16507
10.3965,15724
10.4013,14857
10.406,14635
10.4108,13310
10.4156,13042
10.4203,12398
10.4251,12253
10.4299,11647
10.4346,12388
10.4394,12659
10.4441,11606
10.4489,10486
10.4537,11120
10.4584,9697
10.4632,10695
10.468,9704
10.4727,9758
10.4775,10178
10.4822,10160
10.487,9025
10.4918,10183
10.4965,8660
10.5013,9077
10.506,9107
10.5108,8596
10.5156,8910
10.5203,8400
10.5251,8070
10.5299,7733
10.5346,7736
10.5394,8022
10.5441,8240
10.5489,7765
10.5537,8119
10.5584,8118
10.5632,8061
10.568,6735
10.5727,7634
10.5775,7642
10.5822,7481
10.587,7119
10.5918,7308
10.5965,6784
10.6013,7400
10.606,6041
10.6108,8322
10.6156,7043
10.6203,7744
10.6251,7350
10.6299,7656
10.6346,6972
10.6394,6977
10.6441,6694
10.6489,6143
10.6537,7172
10.6584,6926
10.6632,7249
10.668,6542
10.6727,6727
10.6775,7096
10.6822,7001
10.687,6491
10.6918,6834
10.6965,7658
10.7013,7038
10.706,5908
10.7108,7219
10.7156,7455
10.7203,6381
10.7251,7753
10.7299,7156
10.7346,7110
10.7394,5892
10.7441,6754
10.7489,6580
10.7537,7142
10.7584,5670
10.7632,5745
10.768,6587
10.7727,7062
10.7775,5593
10.7822,6852
10.787,6233
10.7918,5821
10.7965,6024
10.8013,6639
10.8061,6999
10.8108,5952
10.8156,5399
10.8203,5917
10.8251,6350
10.8299,6009
10.8346,6298
10.8394,5694
10.8441,6655
10.8489,5925
10.8537,6616
10.8584,6221
10.8632,5862
10.868,5746
10.8727,6428
10.8775,5945
10.8822,5953
10.887,6190
10.8918,6055
10.8965,7070
10.9013,6448
10.9061,6191
10.9108,6278
10.9156,7039
10.9203,6636
10.9251,6411
10.9299,5773
10.9346,5866
10.9394,5838
10.9441,6153
10.9489,6228
10.9537,5662
10.9584,6443
10.9632,6908
10.968,5775
10.9727,6058
10.9775,5908
10.9822,5572
10.987,5764
10.9918,5953
10.9965,6239
11.0013,5520
11.0061,6453
11.0108,5980
11.0156,6241
11.0203,6211
11.0251,6339
11.0299,5760
11.0346,6247
11.0394,6120
11.0441,6084
11.0489,4758
11.0537,5412
11.0584,6358
11.0632,5401
11.068,6005
11.0727,6229
11.0775,6040
11.0822,6456
11.087,6504
11.0918,6192
11.0965,6445
11.1013,5805
11.1061,5794
11.1108,5830
11.1156,6220
11.1203,5723
11.1251,6004
11.1299,6349
11.1346,5582
11.1394,5382
11.1442,6237
11.1489,5877
11.1537,5534
11.1584,6027
11.1632,5722
11.168,5773
11.1727,6330
11.1775,5690
11.1822,5075
11.187,5492
11.1918,6034
11.1965,5878
11.2013,5751
11.2061,5876
11.2108,5324
11.2156,5853
11.2203,5880
11.2251,6268
11.2299,5811
11.2346,6032
11.2394,6153
11.2442,6978
11.2489,5717
11.2537,6148
11.2584,5867
11.2632,5207
11.268,5449
11.2727,6269
11.2775,6016
11.2822,5547
11.287,6068
11.2918,5649
11.2965,5856
11.3013,5272
11.3061,5775
11.3108,5591
11.3156,5810
11.3203,6278
11.3251,5593
11.3299,5823
11.3346,5664
11.3394,6611
11.3442,4845
11.3489,5454
11.3537,5405
11.3584,6387
11.3632,6288
11.368,5477
11.3727,6185
11.3775,5838
11.3822,5072
11.387,5085
11.3918,5217
11.3965,6019
11.4013,5414
11.4061,6217
11.4108,5983
11.4156,5674
11.4203,6001
11.4251,6591
11.4299,5640
11.4346,5674
11.4394,5155
11.4442,6104
11.4489,5978
11.4537,6161
11.4584,5389
11.4632,5504
11.468,6050
11.4727,5707
11.4775,5196
11.4823,5801
11.487,6038
11.4918,5059
11.4965,5205
11.5013,5834
11.5061,5588
11.5108,5788
11.5156,5149
11.5203,6459
11.5251,4905
11.5299,5558
11.5346,6223
11.5394,5899
11.5442,4855
11.5489,5291
11.5537,5332
11.5584,5708
11.5632,6479
11.568,5889
11.5727,5382
11.5775,5734
11.5823,6180
11.587,5304
11.5918,6198
11.5965,5522
11.6013,6202
11.6061,5101
11.6108,6264
11.6156,4942
11.6203,5408
11.6251,6014
11.6299,5366
11.6346,5526
11.6394,5536
11.6442,5734
11.6489,5648
11.6537,5469
11.6584,5824
11.6632,5453
11.668,5904
11.6727,5090
11.6775,5716
11.6823,5065
11.687,5992
11.6918,5009
11.6965,5140
11.7013,6023
11.7061,5696
11.7108,5158
11.7156,6257
11.7203,4846
11.7251,5658
11.7299,5810
11.7346,4959
11.7394,5497
11.7442,5715
11.7489,5464
11.7537,5165
11.7584,6044
11.7632,5171
11.768,6105
11.7727,5779
11.7775,5511
11.7823,6289
11.787,5987
11.7918,5240
11.7965,6127
11.8013,5676
11.8061,5973
11.8108,5819
11.8156,6128
11.8204,6080
11.8251,5200
11.8299,6077
11.8346,6121
11.8394,5820
11.8442,5285
11.8489,5795
11.8537,6434
11.8584,5110
11.8632,6180
11.868,5864
11.8727,5061
11.8775,5398
11.8823,6231
11.887,5333
11.8918,6000
11.8965,6277
11.9013,4998
11.9061,4652
11.9108,5686
11.9156,5936
11.9204,5493
11.9251,5623
11.9299,5468
11.9346,5467
11.9394,5941
11.9442,5245
11.9489,5850
11.9537,5626
11.9584,5127
11.9632,5457
11.968,5084
11.9727,5615
11.9775,5600
11.9823,5462
11.987,5908
11.9918,6292
11.9965,5638
12.0013,5102
12.0061,4476
12.0108,6125
12.0156,4948
12.0204,5985
12.0251,5592
12.0299,5838
12.0346,5497
12.0394,6359
12.0442,5181
12.0489,4846
12.0537,5358
12.0584,4761
12.0632,6472
12.068,5010
12.0727,4968
12.0775,5310
12.0823,5348
12.087,5253
12.0918,5862
12.0965,5398
12.1013,5738
12.1061,5633
12.1108,5204
12.1156,5478
12.1204,5262
12.1251,5281
12.1299,5573
12.1346,5386
12.1394,5529
12.1442,5258
12.1489,5631
12.1537,5333
12.1585,5652
12.1632,5566
12.168,6237
12.1727,5487
12.1775,5137
12.1823,5629
12.187,6468
12.1918,5533
12.1965,5594
12.2013,5054
12.2061,5439
12.2108,5860
12.2156,5697
12.2204,5798
12.2251,5731
12.2299,5383
12.2346,5066
12.2394,6043
12.2442,5925
12.2489,5343
12.2537,5768
12.2585,4929
12.2632,6818
12.268,5623
12.2727,5369
12.2775,6011
12.2823,6115
12.287,5013
12.2918,5420
12.2965,5993
12.3013,4753
12.3061,5601
12.3108,6350
12.3156,6067
12.3204,5975
12.3251,5492
12.3299,5755
12.3346,5415
12.3394,5575
12.3442,5000
12.3489,5504
12.3537,4968
12.3585,6061
12.3632,5429
12.368,5534
12.3727,5404
12.3775,5254
12.3823,5551
12.387,6003
12.3918,5623
12.3965,5534
12.4013,5879
12.4061,5225
12.4108,5944
12.4156,4628
12.4204,5828
12.4251,5004
12.4299,5379
12.4346,5386
12.4394,5761
12.4442,5887
12.4489,5526
12.4537,5718
12.4585,5912
12.4632,5005
12.468,5972
12.4727,5382
12.4775,5659
12.4823,5710
12.487,5694
12.4918,5051
12.4966,5530
12.5013,5673
12.5061,4841
12.5108,5097
12.5156,6063
12.5204,5069
12.5251,5839
12.5299,6459
12.5346,5414
12.5394,4582
12.5442,5239
12.5489,5714
12.5537,5360
12.5585,5338
12.5632,5348
12.568,5837
12.5727,5264
12.5775,5631
12.5823,5685
12.587,6333
12.5918,5622
12.5966,5514
12.6013,6020
12.6061,5815
12.6108,6410
12.6156,5463
12.6204,5075
12.6251,5170
12.6299,6014
12.6346,5034
12.6394,5446
12.6442,5832
12.6489,5675
12.6537,5579
12.6585,6186
12.6632,5597
12.668,5742
12.6727,4835
12.6775,5300
12.6823,5288
12.687,5212
12.6918,5035
12.6966,5392
12.7013,5355
12.7061,5493
12.7108,5452
12.7156,5501
12.7204,5074
12.7251,5576
12.7299,4844
12.7346,5172
12.7394,6118
12.7442,5296
12.7489,5877
12.7537,5237
12.7585,5585
12.7632,4700
12.768,6144
12.7727,5134
12.7775,5942
12.7823,5884
12.787,5302
12.7918,4754
12.7966,5140
12.8013,6641
12.8061,5715
12.8108,5338
12.8156,5110
12.8204,5703
12.8251,5697
12.8299,5781
12.8347,6088
12.8394,5662
12.8442,5308
12.8489,4828
12.8537,5860
12.8585,5044
12.8632,5749
12.868,4859
12.8727,6353
12.8775,5450
12.8823,5061
12.887,5332
12.8918,5606
12.8966,5635
12.9013,5499
12.9061,5100
12.9108,5331
12.9156,5508
12.9204,6364
12.9251,5128
12.9299,5540
12.9347,5387
12.9394,4837
12.9442,5988
12.9489,5611
12.9537,5423
12.9585,5377
12.9632,5783
12.968,5397
12.9727,5470
12.9775,5479
12.9823,5118
12.987,5956
12.9918,4819
12.9966,5657
13.0013,5463
13.0061,5704
13.0108,5793
13.0156,5763
13.0204,5741
13.0251,5576
13.0299,4908
13.0347,5211
13.0394,6118
13.0442,6130
13.0489,5060
13.0537,5323
13.0585,5924
13.0632,5481
13.068,5275
13.0727,6223
13.0775,5047
13.0823,5642
13.087,6109
13.0918,5504
13.0966,5627
13.1013,5308
13.1061,5236
13.1108,6310
13.1156,5737
13.1204,5758
13.1251,5702
13.1299,5093
13.1347,6025
13.1394,5289
13.1442,5432
13.1489,5545
13.1537,5654
13.1585,5465
13.1632,5278
13.168,5585
13.1728,6053
13.1775,5909
13.1823,5265
13.187,5064
13.1918,5371
13.1966,5297
13.2013,6117
13.2061,4731
13.2108,5512
13.2156,5799
13.2204,5702
13.2251,4995
13.2299,5864
13.2347,5775
13.2394,5976
13.2442,6278
13.2489,5820
13.2537,5760
13.2585,5931
13.2632,5160
13.268,5574
13.2728,5324
13.2775,5434
13.2823,4574
13.287,5274
13.2918,5780
13.2966,5123
13.3013,5598
13.3061,5238
13.3108,4936
13.3156,5160
13.3204,5057
13.3251,4808
13.3299,5375
13.3347,6014
13.3394,5415
13.3442,6066
13.3489,5384
13.3537,4981
13.3585,5934
13.3632,4958
13.368,5233
13.3728,5556
13.3775,5758
13.3823,5368
13.387,5318
13.3918,5249
13.3966,4959
13.4013,5068
13.4061,5989
13.4108,4947
13.4156,5359
13.4204,5949
13.4251,5339
13.4299,5303
13.4347,5546
13.4394,5052
13.4442,5266
13.4489,4849
13.4537,5288
13.4585,5578
13.4632,5153
13.468,4742
13.4728,4828
13.4775,5532
13.4823,4506
13.487,4874
13.4918,5598
13.4966,5080
13.5013,5535
13.5061,4894
13.5109,5497
13.5156,6126
13.5204,5443
13.5251,5140
13.5299,5481
13.5347,6094
13.5394,5567
13.5442,5021
13.5489,5861
13.5537,5838
13.5585,5697
13.5632,5974
13.568,5923
13.5728,6104
13.5775,4913
13.5823,5900
13.587,5104
13.5918,5119
13.5966,5034
13.6013,6291
13.6061,5524
13.6109,5452
13.6156,5742
13.6204,5531
13.6251,5243
13.6299,5122
13.6347,4377
13.6394,4819
13.6442,5359
13.6489,5741
13.6537,5115
13.6585,5632
13.6632,6122
13.668,6010
13.6728,5732
13.6775,5975
13.6823,5850
13.687,5920
13.6918,5500
13.6966,5131
13.7013,5600
13.7061,5356
13.7109,4846
13.7156,5575
13.7204,6169
13.7251,5372
13.7299,5531
13.7347,5407
13.7394,5593
13.7442,4893
13.7489,6199
13.7537,4995
13.7585,5442
13.7632,5459
13.768,5437
13.7728,5460
13.7775,4654
13.7823,5708
13.787,4271
13.7918,5981
13.7966,5953
13.8013,5503
13.8061,4842
13.8109,5621
13.8156,5475
13.8204,5653
13.8251,4755
13.8299,5707
13.8347,5606
13.8394,5090
13.8442,5639
13.849,5766
13.8537,4798
13.8585,6271
13.8632,4936
13.868,5286
13.8728,5415
13.8775,5537
13.8823,6099
13.887,5051
13.8918,4696
13.8966,5667
13.9013,5942
13.9061,5682
13.9109,4794
13.9156,5968
13.9204,5668
13.9251,5663
13.9299,5105
13.9347,5494
13.9394,4978
13.9442,5104
13.949,5521
13.9537,4917
13.9585,6350
13.9632,5252
13.968,5846
13.9728,5691
13.9775,5603
13.9823,4977
13.987,5487
13.9918,5461
13.9966,5392
14.0013,5239
14.0061,5673
14.0109,5909
14.0156,5548
14.0204,6119
14.0251,5942
14.0299,5078
14.0347,5377
14.0394,6395
14.0442,4592
14.049,4906
14.0537,5598
14.0585,5718
14.0632,4969
14.068,6249
14.0728,6181
14.0775,6597
14.0823,5033
14.087,5037
14.0918,5349
14.0966,5826
14.1013,6012
14.1061,5720
14.1109,5091
14.1156,5064
14.1204,5823
14.1251,5693
14.1299,5397
14.1347,5201
14.1394,6093
14.1442,5544
14.149,4760
14.1537,5183
14.1585,5271
14.1632,4990
14.168,5576
14.1728,5519
14.1775,6142
14.1823,5618
14.1871,5370
14.1918,5068
14.1966,5222
14.2013,6163
14.2061,5402
14.2109,5648
14.2156,5582
14.2204,6158
14.2251,5548
14.2299,5676
14.2347,5656
14.2394,5689
14.2442,4853
14.249,5461
14.2537,5595
14.2585,5544
14.2632,5789
14.268,5673
14.2728,5946
14.2775,5975
14.2823,5028
14.2871,4568
14.2918,5329
14.2966,5073
14.3013,5382
14.3061,5066
14.3109,5550
14.3156,5726
14.3204,5357
14.3251,5832
14.3299,5131
14.3347,5946
14.3394,5139
14.3442,5222
14.349,4892
14.3537,5667
14.3585,5171
14.3632,5108
14.368,6185
14.3728,5419
14.3775,4753
14.3823,5210
14.3871,5120
14.3918,5206
14.3966,5728
14.4013,4953
14.4061,5408
14.4109,5997
14.4156,5612
14.4204,5370
14.4251,4818
14.4299,5840
14.4347,6069
14.4394,5875
14.4442,5011
14.449,5877
14.4537,4543
14.4585,5245
14.4632,4807
14.468,5055
14.4728,5300
14.4775,6017
14.4823,5537
14.4871,5473
14.4918,5230
14.4966,5906
14.5013,5213
14.5061,6199
14.5109,5891
14.5156,5523
14.5204,5174
14.5252,5211
14.5299,5324
14.5347,5130
14.5394,5594
14.5442,5731
14.549,5653
14.5537,5419
14.5585,5494
14.5632,5793
14.568,5611
14.5728,4739
14.5775,4565
14.5823,6046
14.5871,5179
14.5918,5200
14.5966,5034
14.6013,5434
14.6061,5271
14.6109,5530
14.6156,5706
14.6204,5494
14.6252,5261
14.6299,5529
14.6347,5718
14.6394,5381
14.6442,5059
14.649,5985
14.6537,5567
14.6585,5615
