D:\MassHunter\GCMS\1\data\Victoria Marland\22FEB\220223009.D 23 Feb 22  05:09 pm
Start of data points
3.09163,578
3.0964,670
3.10115,545
3.10592,499
3.11068,539
3.11543,542
3.1202,505
3.12497,621
3.12973,547
3.13448,654
3.13925,811
3.14402,912
3.14877,755
3.15353,847
3.1583,970
3.16307,813
3.16782,916
3.17258,739
3.17735,672
3.1821,684
3.18687,472
3.19163,711
3.1964,823
3.20115,938
3.20592,568
3.21068,1112
3.21543,1215
3.2202,541
3.22497,978
3.22973,621
3.23448,692
3.23925,790
3.24402,824
3.24877,899
3.25353,732
3.2583,867
3.26307,714
3.26782,908
3.27258,554
3.27735,706
3.28212,873
3.28687,775
3.29163,994
3.2964,889
3.30115,686
3.30592,800
3.31068,722
3.31545,851
3.3202,693
3.32497,616
3.32973,785
3.33448,676
3.33925,546
3.34402,784
3.34878,853
3.35353,637
3.3583,841
3.36307,651
3.36782,637
3.37258,717
3.37735,569
3.38212,974
3.38687,884
3.39163,902
3.3964,635
3.40115,1052
3.40592,580
3.41068,764
3.41545,1004
3.4202,831
3.42497,609
3.42973,733
3.4345,712
3.43925,834
3.44402,747
3.44878,730
3.45353,512
3.4583,793
3.46307,763
3.46783,899
3.47258,618
3.47735,608
3.48212,749
3.48687,598
3.49163,711
3.4964,548
3.50117,769
3.50592,794
3.51068,878
3.51545,1062
3.5202,2511
3.52497,3102
3.52973,3385
3.5345,1417
3.53925,815
3.54402,887
3.54878,1094
3.55353,709
3.5583,1685
3.56307,651
3.56783,596
3.57258,920
3.57735,883
3.58212,911
3.58687,750
3.59163,992
3.5964,602
3.60117,824
3.60592,779
3.61068,863
3.61545,584
3.62022,763
3.62497,803
3.62973,778
3.6345,812
3.63925,575
3.64402,828
3.64878,810
3.65355,758
3.6583,674
3.66307,912
3.66783,563
3.67258,601
3.67735,733
3.68212,691
3.68688,797
3.69163,704
3.6964,957
3.70117,770
3.70592,978
3.71068,766
3.71545,950
3.72022,588
3.72497,623
3.72973,667
3.7345,1065
3.73925,768
3.74402,818
3.74878,768
3.75355,770
3.7583,742
3.76307,612
3.76783,745
3.7726,565
3.77735,748
3.78212,737
3.78688,627
3.79163,1057
3.7964,754
3.80117,713
3.80593,934
3.81068,843
3.81545,947
3.82022,899
3.82497,1003
3.82973,762
3.8345,783
3.83927,659
3.84402,597
3.84878,684
3.85355,721
3.8583,877
3.86307,816
3.86783,712
3.8726,1879
3.87735,748
3.88212,633
3.88688,773
3.89163,523
3.8964,898
3.90117,744
3.90593,765
3.91068,762
3.91545,841
3.92022,935
3.92497,850
3.92973,955
3.9345,748
3.93927,625
3.94402,865
3.94878,634
3.95355,1000
3.95832,977
3.96307,859
3.96783,888
3.9726,1010
3.97735,676
3.98212,850
3.98688,662
3.99165,839
3.9964,660
4.00117,672
4.00593,787
4.01068,785
4.01545,1004
4.02022,692
4.02498,685
4.02973,741
4.0345,698
4.03927,835
4.04402,686
4.04878,729
4.05355,777
4.05832,646
4.06307,777
4.06783,908
4.0726,920
4.07735,716
4.08212,785
4.08688,812
4.09165,876
4.0964,735
4.10117,897
4.10593,907
4.1107,774
4.11545,708
4.12022,728
4.12498,761
4.12973,784
4.1345,822
4.13927,617
4.14403,642
4.14878,709
4.15355,761
4.15832,832
4.16307,945
4.16783,873
4.1726,739
4.17737,754
4.18212,812
4.18688,655
4.19165,895
4.1964,880
4.20117,870
4.20593,792
4.2107,1220
4.21545,2405
4.22022,2389
4.22498,1455
4.22973,882
4.2345,838
4.23927,767
4.24403,858
4.24878,548
4.25355,968
4.25832,685
4.26307,822
4.26783,963
4.2726,917
4.27737,649
4.28212,1360
4.28688,1033
4.29165,626
4.29642,817
4.30117,1006
4.30593,725
4.3107,869
4.31545,973
4.32022,974
4.32498,770
4.32975,681
4.3345,855
4.33927,756
4.34403,844
4.34878,728
4.35355,783
4.35832,948
4.36308,853
4.36783,938
4.3726,1088
4.37737,828
4.38212,809
4.38688,760
4.39165,872
4.39642,765
4.40117,975
4.40593,764
4.4107,1072
4.41545,909
4.42022,1106
4.42498,990
4.42975,902
4.4345,1049
4.43927,695
4.44403,729
4.4488,899
4.45355,1060
4.45832,1274
4.46308,948
4.46783,752
4.4726,894
4.47737,848
4.48213,1070
4.48688,797
4.49165,1119
4.49642,1087
4.50117,1015
4.50593,914
4.5107,941
4.51547,1000
4.52022,792
4.52498,899
4.52975,998
4.5345,778
4.53927,900
4.54403,655
4.5488,708
4.55355,755
4.55832,854
4.56308,867
4.56783,876
4.5726,776
4.57737,1141
4.58213,1086
4.58688,1008
4.59165,823
4.59642,1128
4.60117,775
4.60593,698
4.6107,900
4.61547,969
4.62022,1040
4.62498,903
4.62975,724
4.63452,961
4.63927,855
4.64403,1048
4.6488,892
4.65355,718
4.65832,925
4.66308,1186
4.66785,901
4.6726,820
4.67737,968
4.68213,1121
4.68688,903
4.69165,1304
4.69642,1175
4.70118,870
4.70593,762
4.7107,916
4.71547,1100
4.72022,1255
4.72498,909
4.72975,872
4.73452,1067
4.73927,1115
4.74403,874
4.7488,750
4.75355,785
4.75832,1068
4.76308,888
4.76785,1098
4.7726,915
4.77737,1097
4.78213,1286
4.78688,1033
4.79165,1028
4.79642,1216
4.80118,1570
4.80593,1818
4.8107,1430
4.81547,1003
4.82023,876
4.82498,1048
4.82975,1122
4.83452,1039
4.83927,639
4.84403,1005
4.8488,837
4.85357,839
4.85832,1049
4.86308,892
4.86785,1075
4.8726,916
4.87737,1251
4.88213,1029
4.8869,1044
4.89165,918
4.89642,831
4.90118,992
4.90593,1042
4.9107,901
4.91547,1066
4.92023,1278
4.92498,1010
4.92975,1164
4.93452,856
4.93927,1142
4.94403,1197
4.9488,1106
4.95357,985
4.95832,952
4.96308,1228
4.96785,1096
4.97262,936
4.97737,1013
4.98213,958
4.9869,1054
4.99165,1103
4.99642,1159
5.00118,1242
5.00595,868
5.0107,1133
5.01547,1289
5.02023,1188
5.02498,1339
5.02975,731
5.03452,1147
5.03928,1093
5.04403,1281
5.0488,848
5.05357,829
5.05832,1030
5.06308,1061
5.06785,1092
5.07262,1061
5.07737,957
5.08213,1004
5.0869,1064
5.09165,1191
5.09642,1260
5.10118,1094
5.10595,1152
5.1107,1103
5.11547,940
5.12023,1533
5.12498,1214
5.12975,1298
5.13452,1002
5.13928,1369
5.14403,1261
5.1488,1223
5.15357,1077
5.15833,1132
5.16308,1344
5.16785,1360
5.17262,1221
5.17737,930
5.18213,985
5.1869,1029
5.19167,1182
5.19642,1139
5.20118,1179
5.20595,1105
5.2107,1135
5.21547,1244
5.22023,909
5.225,1141
5.22975,900
5.23452,1233
5.23928,1055
5.24403,1088
5.2488,1031
5.25357,1393
5.25833,1181
5.26308,925
5.26785,1149
5.27262,1153
5.27737,950
5.28213,1174
5.2869,1142
5.29167,1527
5.29642,1105
5.30118,869
5.30595,1178
5.31072,1208
5.31547,1302
5.32023,1387
5.325,1495
5.32975,2008
5.33452,1377
5.33928,1207
5.34405,1347
5.3488,942
5.35357,1143
5.35833,1306
5.36308,1085
5.36785,1374
5.37262,1371
5.37738,1342
5.38213,1135
5.3869,1137
5.39167,1148
5.39642,1443
5.40118,1098
5.40595,931
5.41072,1145
5.41547,1374
5.42023,1190
5.425,1766
5.42975,1407
5.43452,1220
5.43928,1325
5.44405,1238
5.4488,1383
5.45357,1199
5.45833,915
5.46308,1356
5.46785,1193
5.47262,1404
5.47738,1362
5.48213,1274
5.4869,1148
5.49167,1445
5.49643,1554
5.50118,1796
5.50595,1354
5.51072,1342
5.51547,1117
5.52023,1451
5.525,1055
5.52977,1213
5.53452,1340
5.53928,1394
5.54405,1383
5.5488,1287
5.55357,1145
5.55833,1358
5.5631,1037
5.56785,1736
5.57262,1523
5.57738,1246
5.58213,1543
5.5869,1619
5.59167,1533
5.59643,1252
5.60118,1338
5.60595,1190
5.61072,1302
5.61547,1360
5.62023,1099
5.625,1430
5.62977,1245
5.63452,1605
5.63928,1351
5.64405,1475
5.64882,1630
5.65357,1127
5.65833,1250
5.6631,1459
5.66785,1652
5.67262,1191
5.67738,1334
5.68215,1260
5.6869,1287
5.69167,1381
5.69643,1378
5.70118,1202
5.70595,1524
5.71072,1207
5.71548,1274
5.72023,1300
5.725,1458
5.72977,1323
5.73452,1214
5.73928,1449
5.74405,1354
5.74882,1532
5.75357,1373
5.75833,1333
5.7631,1483
5.76785,1933
5.77262,1314
5.77738,1561
5.78215,1397
5.7869,1481
5.79167,1377
5.79643,1473
5.80118,1616
5.80595,1784
5.81072,1489
5.81548,1814
5.82023,1472
5.825,1072
5.82977,1385
5.83453,1598
5.83928,1376
5.84405,1332
5.84882,1328
5.85357,1421
5.85833,1601
5.8631,1654
5.86787,1463
5.87262,1598
5.87738,1409
5.88215,1569
5.8869,1773
5.89167,1492
5.89643,1346
5.9012,1401
5.90595,1730
5.91072,1389
5.91548,1547
5.92023,1491
5.925,1692
5.92977,1687
5.93453,1232
5.93928,1634
5.94405,1595
5.94882,1370
5.95357,1550
5.95833,1880
5.9631,2267
5.96787,2313
5.97262,2316
5.97738,1825
5.98215,1813
5.9869,1704
5.99167,1550
5.99643,1785
6.0012,1656
6.00595,1726
6.01072,1692
6.01548,1330
6.02025,1584
6.025,1745
6.02977,1839
6.03453,1591
6.03928,1489
6.04405,1221
6.04882,1959
6.05358,1663
6.05833,1704
6.0631,1879
6.06787,1746
6.07262,2026
6.07738,1935
6.08215,2076
6.08692,1842
6.09167,1901
6.09643,1914
6.1012,1786
6.10595,1988
6.11072,1775
6.11548,1890
6.12025,1843
6.125,1507
6.12977,1635
6.13453,1721
6.13928,2080
6.14405,1765
6.14882,1868
6.15358,1888
6.15833,1718
6.1631,1801
6.16787,1637
6.17263,1852
6.17738,1742
6.18215,2024
6.18692,2258
6.19167,2105
6.19643,2043
6.2012,1911
6.20597,1849
6.21072,1912
6.21548,1620
6.22025,1834
6.225,1812
6.22977,2840
6.23453,2511
6.2393,2233
6.24405,1735
6.24882,1886
6.25358,1868
6.25833,1785
6.2631,2114
6.26787,2000
6.27263,1912
6.27738,2085
6.28215,2239
6.28692,2299
6.29167,2219
6.29643,1674
6.3012,1706
6.30597,2199
6.31072,1798
6.31548,1958
6.32025,2513
6.325,2469
6.32977,1825
6.33453,2245
6.3393,1787
6.34405,2160
6.34882,2229
6.35358,2505
6.35835,2244
6.3631,2110
6.36787,2159
6.37263,2453
6.37738,2153
6.38215,2460
6.38692,2802
6.39168,3560
6.39643,3105
6.4012,2459
6.40597,2385
6.41072,2517
6.41548,2273
6.42025,2527
6.42502,2781
6.42977,2125
6.43453,2644
6.4393,2416
6.44405,2103
6.44882,2512
6.45358,2658
6.45835,2154
6.4631,1937
6.46787,2231
6.47263,2671
6.47738,2465
6.48215,2210
6.48692,4193
6.49168,51600
6.49643,450667
6.5012,3048290
6.50597,7743652
6.51073,6588643
6.51548,1892991
6.52025,601929
6.52502,312379
6.52977,198613
6.53453,139504
6.5393,104799
6.54407,82023
6.54882,72720
6.55358,59920
6.55835,50861
6.5631,43666
6.56787,39867
6.57263,33143
6.5774,30702
6.58215,28531
6.58692,24959
6.59168,22716
6.59643,20438
6.6012,19032
6.60597,18290
6.61073,16675
6.61548,16392
6.62025,14705
6.62502,16986
6.62977,14492
6.63453,14239
6.6393,11394
6.64407,11322
6.64882,11241
6.65358,10908
6.65835,10387
6.6631,9919
6.66787,9232
6.67263,9295
6.6774,9347
6.68215,8021
6.68692,8170
6.69168,6952
6.69645,6987
6.7012,7069
6.70597,7158
6.71073,7166
6.71548,8139
6.72025,7602
6.72502,6574
6.72978,6261
6.73453,5671
6.7393,6279
6.74407,6402
6.74882,6469
6.75358,5759
6.75835,6481
6.76312,6391
6.76787,5618
6.77263,5781
6.7774,6162
6.78215,6207
6.78692,6469
6.79168,6698
6.79645,5902
6.8012,5684
6.80597,5936
6.81073,5611
6.81548,5280
6.82025,6318
6.82502,5455
6.82978,5543
6.83453,5515
6.8393,5437
6.84407,5439
6.84883,5706
6.85358,4412
6.85835,6130
6.86312,6197
6.86787,5658
6.87263,4881
6.8774,5093
6.88217,4599
6.88692,5198
6.89168,5193
6.89645,5315
6.9012,5562
6.90597,4442
6.91073,5182
6.9155,4803
6.92025,5146
6.92502,5029
6.92978,4718
6.93453,4858
6.9393,4746
6.94407,4657
6.94883,6514
6.95358,4998
6.95835,4496
6.96312,5326
6.96787,6126
6.97263,4850
6.9774,5850
6.98217,5071
6.98692,5194
6.99168,5467
6.99645,4567
7.0012,5034
7.00597,4281
7.01073,5728
7.0155,4990
7.02025,5614
7.02502,4964
7.02978,5587
7.03455,5280
7.0393,5025
7.04407,5324
7.04883,4856
7.05358,6058
7.05835,5674
7.06312,4697
7.06788,4597
7.07263,5495
7.0774,5255
7.08217,4692
7.08692,4974
7.09168,5215
7.09645,5369
7.10122,5369
7.10597,5361
7.11073,5650
7.1155,5601
7.12025,4677
7.12502,5207
7.12978,5614
7.13455,5132
7.1393,5292
7.14407,4698
7.14883,4463
7.15358,4941
7.15835,5793
7.16312,5364
7.16788,5913
7.17263,5289
7.1774,5231
7.18217,5813
7.18692,4953
7.19168,5565
7.19645,5481
7.20122,5741
7.20597,4958
7.21073,6023
7.2155,6083
7.22027,5531
7.22502,5507
7.22978,5118
7.23455,4994
7.2393,5541
7.24407,5344
7.24883,5213
7.2536,5534
7.25835,5179
7.26312,4902
7.26788,4985
7.27263,5024
7.2774,5162
7.28217,4877
7.28693,5098
7.29168,5881
7.29645,5398
7.30122,5276
7.30597,4799
7.31073,5682
7.3155,5156
7.32027,5695
7.32502,5456
7.32978,5322
7.33455,5665
7.3393,5097
7.34407,5163
7.34883,5565
7.3536,6365
7.35835,5276
7.36312,5751
7.36788,5831
7.37265,5541
7.3774,5542
7.38217,5737
7.38693,6017
7.39168,5142
7.39645,5931
7.40122,4719
7.40598,5328
7.41073,4688
7.4155,5374
7.42027,5325
7.42502,5922
7.42978,5573
7.43455,6287
7.43932,6204
7.44407,4930
7.44883,5640
7.4536,5243
7.45835,5458
7.46312,5729
7.46788,5734
7.47265,6143
7.4774,5414
7.48217,4974
7.48693,6144
7.49168,5994
7.49645,6592
7.50122,5542
7.50598,5164
7.51073,4670
7.5155,4686
7.52027,5453
7.52502,4868
7.52978,5079
7.53455,5475
7.53932,5705
7.54407,5165
7.54883,5243
7.5536,5453
7.55837,4765
7.56312,5622
7.56788,5726
7.57265,5581
7.5774,5708
7.58217,5186
7.58693,6279
7.5917,5115
7.59645,5682
7.60122,5195
7.60598,5892
7.61073,5544
7.6155,5846
7.62027,5681
7.62503,5255
7.62978,5396
7.63455,4999
7.63932,5391
7.64407,5158
7.64883,5932
7.6536,5273
7.65837,4850
7.66312,5687
7.66788,4478
7.67265,5869
7.6774,5500
7.68217,5058
7.68693,5312
7.6917,5413
7.69645,5095
7.70122,5011
7.70598,5721
7.71075,4932
7.7155,5509
7.72027,5295
7.72503,5177
7.72978,6139
7.73455,5850
7.73932,5682
7.74408,5583
7.74883,5549
7.7536,5409
7.75837,5812
7.76312,4624
7.76788,5513
7.77265,5361
7.77742,5987
7.78217,5689
7.78693,6201
7.7917,5855
7.79645,5821
7.80122,5700
7.80598,5467
7.81075,5403
7.8155,6214
7.82027,5990
7.82503,5325
7.82978,5055
7.83455,5299
7.83932,5511
7.84408,5515
7.84883,5983
7.8536,5905
7.85837,6312
7.86312,6409
7.86788,5823
7.87265,5515
7.87742,5713
7.88217,5584
7.88693,5830
7.8917,5968
7.89647,5422
7.90122,5654
7.90598,5846
7.91075,5772
7.9155,5740
7.92027,5959
7.92503,5902
7.9298,5363
7.93455,5179
7.93932,5508
7.94408,5963
7.94883,5818
7.9536,5839
7.95837,6405
7.96313,5888
7.96788,5539
7.97265,4857
7.97742,6006
7.98217,5289
7.98693,6357
7.9917,5767
7.99647,6022
8.00122,5222
8.00598,5208
8.01075,5725
8.0155,5728
8.02027,6169
8.02503,5482
8.0298,5962
8.03455,5586
8.03932,5753
8.04408,5633
8.04885,6094
8.0536,5813
8.05837,5469
8.06313,5772
8.06788,5657
8.07265,5524
8.07742,6226
8.08218,5432
8.08693,5370
8.0917,5947
8.09647,5267
8.10122,5904
8.10598,6122
8.11075,6367
8.11552,5924
8.12027,5697
8.12503,5353
8.1298,5877
8.13455,5768
8.13932,5038
8.14408,5151
8.14885,5765
8.1536,5521
8.15837,5439
8.16313,6324
8.16788,5782
8.17265,5655
8.17742,5502
8.18218,5955
8.18693,6403
8.1917,5009
8.19647,5930
8.20122,6474
8.20598,6031
8.21075,6356
8.21552,5253
8.22027,5618
8.22503,5624
8.2298,5727
8.23457,5528
8.23932,5506
8.24408,5225
8.24885,5539
8.2536,5628
8.25837,5417
8.26313,4890
8.2679,6017
8.27265,5635
8.27742,5044
8.28218,4874
8.28693,5598
8.2917,5247
8.29647,5492
8.30123,5702
8.30598,5770
8.31075,5967
8.31552,5776
8.32027,5788
8.32503,6284
8.3298,5888
8.33457,5445
8.33932,5737
8.34408,5002
8.34885,5057
8.3536,5531
8.35837,5258
8.36313,5381
8.3679,5521
8.37265,5131
8.37742,5903
8.38218,5062
8.38693,6226
8.3917,5765
8.39647,5539
8.40123,5648
8.40598,4671
8.41075,5217
8.41552,5101
8.42028,5376
8.42503,6109
8.4298,5719
8.43457,5170
8.43932,5726
8.44408,5767
8.44885,5695
8.45362,6278
8.45837,6418
8.46313,5447
8.4679,4989
8.47265,5806
8.47742,5805
8.48218,5420
8.48695,5324
8.4917,5657
8.49647,4877
8.50123,5347
8.50598,5939
8.51075,4894
8.51552,6414
8.52028,5722
8.52503,5431
8.5298,5328
8.53457,5735
8.53932,5578
8.54408,5195
8.54885,5475
8.55362,5723
8.55837,4783
8.56313,5488
8.5679,5444
8.57267,5979
8.57742,5500
8.58218,6481
8.58695,5322
8.5917,6019
8.59647,5563
8.60123,5288
8.606,6691
8.61075,5389
8.61552,6097
8.62028,5101
8.62503,5417
8.6298,5783
8.63457,5772
8.63933,5627
8.64408,6562
8.64885,5247
8.65362,5288
8.65837,5726
8.66313,5670
8.6679,6110
8.67267,5268
8.67742,5717
8.68218,5724
8.68695,6105
8.6917,5782
8.69647,5207
8.70123,5989
8.706,5049
8.71075,5890
8.71552,5811
8.72028,6254
8.72503,6240
8.7298,6007
8.73457,5180
8.73933,5511
8.74408,5409
8.74885,6231
8.75362,5739
8.75838,6524
8.76313,6057
8.7679,5870
8.77267,5313
8.77742,6465
8.78218,5319
8.78695,5229
8.79172,5013
8.79647,5285
8.80123,5401
8.806,5031
8.81075,5571
8.81552,5133
8.82028,4816
8.82505,6336
8.8298,4859
8.83457,6027
8.83933,6160
8.84408,5872
8.84885,5721
8.85362,5759
8.85838,5369
8.86313,6240
8.8679,5706
8.87267,4941
8.87742,5635
8.88218,5226
8.88695,5256
8.89172,5913
8.89647,5179
8.90123,5202
8.906,5621
8.91077,5814
8.91552,5733
8.92028,5493
8.92505,5068
8.9298,5526
8.93457,5484
8.93933,5839
8.9441,6200
8.94885,6334
8.95362,4707
8.95838,5368
8.96313,5259
8.9679,5465
8.97267,5437
8.97743,5927
8.98218,5136
8.98695,5611
8.99172,5601
8.99647,5819
9.00123,5259
9.006,5521
9.01077,5782
9.01552,5562
9.02028,5262
9.02505,4932
9.0298,5399
9.03457,5757
9.03933,5047
9.0441,6478
9.04885,6251
9.05362,5666
9.05838,5171
9.06313,5130
9.0679,5792
9.07267,5310
9.07743,5913
9.08218,5202
9.08695,5879
9.09172,5163
9.09648,4583
9.10123,5725
9.106,6130
9.11077,5417
9.11552,5843
9.12028,4897
9.12505,5496
9.12982,5403
9.13457,5447
9.13933,6525
9.1441,4545
9.14885,5939
9.15362,5682
9.15838,5425
9.16315,5567
9.1679,5784
9.17267,5970
9.17743,5433
9.18218,5273
9.18695,4982
9.19172,5558
9.19648,5279
9.20123,5662
9.206,6293
9.21077,5264
9.21552,4988
9.22028,5718
9.22505,6592
9.22982,5893
9.23457,5813
9.23933,6609
9.2441,5628
9.24887,5147
9.25362,4802
9.25838,4399
9.26315,5700
9.2679,5743
9.27267,5277
9.27743,5875
9.2822,5306
9.28695,5928
9.29172,4479
9.29648,5398
9.30123,5751
9.306,5195
9.31077,5950
9.31553,5447
9.32028,4995
9.32505,5168
9.32982,5652
9.33457,5526
9.33933,5921
9.3441,5168
9.34887,5893
9.35362,6559
9.35838,4912
9.36315,5289
9.3679,5737
9.37267,5577
9.37743,5868
9.3822,5183
9.38695,5707
9.39172,4741
9.39648,5160
9.40123,5292
9.406,5503
9.41077,5599
9.41553,5183
9.42028,6197
9.42505,5747
9.42982,5205
9.43458,5717
9.43933,5971
9.4441,6385
9.44887,5265
9.45362,5549
9.45838,5816
9.46315,5817
9.46792,6020
9.47267,5223
9.47743,5608
9.4822,5001
9.48695,5525
9.49172,5628
9.49648,5666
9.50125,6557
9.506,5589
9.51077,4597
9.51553,5630
9.52028,5171
9.52505,5328
9.52982,5983
9.53458,5493
9.53933,5183
9.5441,5156
9.54887,6494
9.55362,5257
9.55838,6009
9.56315,5414
9.56792,5632
9.57267,5031
9.57743,5757
9.5822,5293
9.58695,5227
9.59172,5778
9.59648,5475
9.60125,5674
9.606,5722
9.61077,5625
9.61553,5121
9.6203,5547
9.62505,5746
9.62982,5247
9.63458,4815
9.63933,4995
9.6441,5776
9.64887,5015
9.65363,6105
9.65838,5849
9.66315,5491
9.66792,5263
9.67267,6540
9.67743,5068
9.6822,5683
9.68697,5713
9.69172,5448
9.69648,5645
9.70125,5074
9.706,5280
9.71077,4491
9.71553,5800
9.7203,5110
9.72505,4977
9.72982,5845
9.73458,5647
9.73933,5324
9.7441,4826
9.74887,5127
9.75363,6039
9.75838,5340
9.76315,5676
9.76792,5807
9.77268,6004
9.77743,5288
9.7822,5880
9.78697,5915
9.79172,5614
9.79648,4928
9.80125,5536
9.80602,5404
9.81077,4949
9.81553,4911
9.8203,5597
9.82505,5623
9.82982,5950
9.83458,4890
9.83935,5791
9.8441,4899
9.84887,5489
9.85363,5417
9.85838,4923
9.86315,5990
9.86792,5562
9.87268,5336
9.87743,5348
9.8822,5251
9.88697,5463
9.89172,5315
9.89648,5851
9.90125,5857
9.90602,5895
9.91077,6000
9.91553,5803
9.9203,5612
9.92505,6406
9.92982,6301
9.93458,6131
9.93935,5878
9.9441,5164
9.94887,6200
9.95363,5167
9.9584,5710
9.96315,5232
9.96792,5846
9.97268,5550
9.97743,5359
9.9822,5993
9.98697,4852
9.99173,5131
9.99648,5467
10.0013,6318
10.006,5764
10.0108,5924
10.0155,5583
10.0203,6101
10.0251,5419
10.0298,5761
10.0346,5277
10.0394,4736
10.0441,6066
10.0489,5265
10.0536,5516
10.0584,5681
10.0632,5312
10.0679,4895
10.0727,5418
10.0774,5622
10.0822,5184
10.087,5445
10.0917,5171
10.0965,5308
10.1013,4895
10.106,5414
10.1108,5678
10.1155,4973
10.1203,5642
10.1251,6038
10.1298,5436
10.1346,5056
10.1394,4958
10.1441,5208
10.1489,5723
10.1536,5352
10.1584,5361
10.1632,5133
10.1679,4707
10.1727,5613
10.1775,5256
10.1822,5428
10.187,4725
10.1917,5256
10.1965,6000
10.2013,5263
10.206,6126
10.2108,5448
10.2155,6187
10.2203,5550
10.2251,5203
10.2298,5492
10.2346,5772
10.2394,6626
10.2441,5064
10.2489,5283
10.2536,5434
10.2584,5521
10.2632,5155
10.2679,5342
10.2727,4321
10.2775,6055
10.2822,5246
10.287,5369
10.2917,5629
10.2965,5783
10.3013,5536
10.306,5948
10.3108,5893
10.3155,5266
10.3203,5688
10.3251,5801
10.3298,5586
10.3346,5910
10.3394,5607
10.3441,5210
10.3489,5672
10.3536,5219
10.3584,5056
10.3632,4883
10.3679,5521
10.3727,5250
10.3775,4610
10.3822,5966
10.387,6385
10.3917,5696
10.3965,5019
10.4013,6205
10.406,5363
10.4108,5632
10.4155,5664
10.4203,6053
10.4251,5961
10.4298,5552
10.4346,4669
10.4394,5825
10.4441,5092
10.4489,5357
10.4536,5027
10.4584,4785
10.4632,5747
10.4679,4606
10.4727,5318
10.4775,5478
10.4822,5666
10.487,5517
10.4917,5370
10.4965,5099
10.5013,5708
10.506,5698
10.5108,5003
10.5156,5159
10.5203,5589
10.5251,5634
10.5298,5514
10.5346,5948
10.5394,5781
10.5441,5535
10.5489,6106
10.5536,5991
10.5584,5121
10.5632,5551
10.5679,5337
10.5727,5097
10.5775,4939
10.5822,4913
10.587,5916
10.5917,5650
10.5965,5923
10.6013,5604
10.606,5484
10.6108,5832
10.6156,4776
10.6203,5657
10.6251,4931
10.6298,5407
10.6346,5889
10.6394,5243
10.6441,5487
10.6489,5764
10.6536,5748
10.6584,5708
10.6632,5589
10.6679,5939
10.6727,5679
10.6775,6197
10.6822,4950
10.687,5842
10.6917,5274
10.6965,4917
10.7013,5363
10.706,5599
10.7108,5213
10.7156,5226
10.7203,5819
10.7251,5221
10.7298,4905
10.7346,5656
10.7394,5575
10.7441,5422
10.7489,5349
10.7536,5131
10.7584,5757
10.7632,5280
10.7679,5984
10.7727,5235
10.7775,6316
10.7822,5408
10.787,5203
10.7917,5915
10.7965,6123
10.8013,5848
10.806,5574
10.8108,6272
10.8156,5346
10.8203,5660
10.8251,6014
10.8298,5400
10.8346,6570
10.8394,5302
10.8441,5812
10.8489,5238
10.8537,5218
10.8584,4844
10.8632,6033
10.8679,5959
10.8727,5139
10.8775,6230
10.8822,5497
10.887,6241
10.8917,5855
10.8965,6145
10.9013,6160
10.906,5255
10.9108,5454
10.9156,5369
10.9203,4855
10.9251,6944
10.9298,5773
10.9346,6459
10.9394,5375
10.9441,5232
10.9489,5666
10.9537,6097
10.9584,6059
10.9632,5353
10.9679,5335
10.9727,5554
10.9775,5965
10.9822,5664
10.987,6072
10.9917,4610
10.9965,5748
11.0013,5549
11.006,5438
11.0108,5851
11.0156,5569
11.0203,5618
11.0251,5295
11.0298,5216
11.0346,5496
11.0394,5632
11.0441,5976
11.0489,5252
11.0537,4314
11.0584,5485
11.0632,5030
11.0679,5540
11.0727,6045
11.0775,5649
11.0822,6165
11.087,5740
11.0917,5779
11.0965,4312
11.1013,5657
11.106,5403
11.1108,5461
11.1156,5368
11.1203,5245
11.1251,5716
11.1298,5434
11.1346,5262
11.1394,5857
11.1441,4856
11.1489,5152
11.1537,5644
11.1584,4874
11.1632,5948
11.1679,5504
11.1727,5767
11.1775,5150
11.1822,6703
11.187,5593
11.1918,5145
11.1965,5269
11.2013,5372
11.206,5375
11.2108,5502
11.2156,5134
11.2203,5736
11.2251,5121
11.2298,5308
11.2346,5876
11.2394,5177
11.2441,5033
11.2489,5687
11.2537,5914
11.2584,5475
11.2632,5281
11.2679,5576
11.2727,5503
11.2775,5085
11.2822,5480
11.287,5561
11.2918,5683
11.2965,4946
11.3013,5187
11.306,5488
11.3108,5347
11.3156,5391
11.3203,5829
11.3251,5891
11.3298,5868
11.3346,5448
11.3394,4955
11.3441,5612
11.3489,6063
11.3537,5529
11.3584,6588
11.3632,5550
11.3679,6201
11.3727,4710
11.3775,5300
11.3822,4512
11.387,5566
11.3918,5417
11.3965,5436
11.4013,5743
11.406,5838
11.4108,5993
11.4156,6086
11.4203,5519
11.4251,5482
11.4298,4673
11.4346,5925
11.4394,5199
11.4441,5563
11.4489,6230
11.4537,5798
11.4584,5648
11.4632,4929
11.4679,5508
11.4727,5049
11.4775,4908
11.4822,5110
11.487,5616
11.4918,6144
11.4965,5212
11.5013,5486
11.506,6340
11.5108,5919
11.5156,5752
11.5203,6142
11.5251,5033
11.5299,5562
11.5346,4950
11.5394,6022
11.5441,5445
11.5489,5090
11.5537,5872
11.5584,6375
11.5632,5415
11.5679,5312
11.5727,5655
11.5775,5613
11.5822,5400
11.587,5793
11.5918,5459
11.5965,5651
11.6013,5448
11.606,6184
11.6108,6831
11.6156,5807
11.6203,6029
11.6251,6012
11.6299,5864
11.6346,5402
11.6394,5679
11.6441,5196
11.6489,5350
11.6537,5756
11.6584,5576
11.6632,5582
11.6679,5553
11.6727,5450
11.6775,5547
11.6822,5213
11.687,6292
11.6918,5517
11.6965,5537
11.7013,5390
11.706,5893
11.7108,5624
11.7156,6050
11.7203,5007
11.7251,5347
11.7299,5582
11.7346,5422
11.7394,5816
11.7441,5806
11.7489,5585
11.7537,6531
11.7584,5364
11.7632,5560
11.7679,5737
11.7727,6149
11.7775,5976
11.7822,5525
11.787,5319
11.7918,5858
11.7965,5245
11.8013,6016
11.806,5818
11.8108,4885
11.8156,5680
11.8203,5736
11.8251,4914
11.8299,5471
11.8346,5605
11.8394,5247
11.8441,5747
11.8489,5696
11.8537,5207
11.8584,5490
11.8632,4754
11.868,4913
11.8727,5865
11.8775,5092
11.8822,5207
11.887,5072
11.8918,5557
11.8965,5626
11.9013,4950
11.906,6363
11.9108,5449
11.9156,5157
11.9203,5718
11.9251,5454
11.9299,5626
11.9346,5839
11.9394,4975
11.9441,5458
11.9489,5035
11.9537,5338
11.9584,5734
11.9632,5950
11.968,5487
11.9727,5414
11.9775,4615
11.9822,5866
11.987,5284
11.9918,5529
11.9965,5447
12.0013,5882
12.006,6000
12.0108,5542
12.0156,5352
12.0203,5116
12.0251,6144
12.0299,5135
12.0346,4990
12.0394,5576
12.0441,5734
12.0489,5558
12.0537,5375
12.0584,5884
12.0632,4771
12.068,4999
12.0727,5112
12.0775,5315
12.0822,5464
12.087,6049
12.0918,5807
12.0965,5467
12.1013,4845
12.106,5079
12.1108,5781
12.1156,5139
12.1203,6116
12.1251,5838
12.1299,5068
12.1346,5604
12.1394,5489
12.1441,5417
12.1489,5326
12.1537,5867
12.1584,5975
12.1632,4473
12.168,5338
12.1727,5716
12.1775,5399
12.1822,5579
12.187,6030
12.1918,5281
12.1965,4808
12.2013,5231
12.2061,4800
12.2108,5706
12.2156,5532
12.2203,5319
12.2251,4673
12.2299,5440
12.2346,5586
12.2394,5764
12.2441,4992
12.2489,4853
12.2537,5764
12.2584,5792
12.2632,5114
12.268,6120
12.2727,6087
12.2775,4797
12.2822,5837
12.287,5081
12.2918,5627
12.2965,4914
12.3013,6041
12.3061,5156
12.3108,5016
12.3156,5962
12.3203,5660
12.3251,5032
12.3299,5573
12.3346,5088
12.3394,5891
12.3441,5485
12.3489,5072
12.3537,6235
12.3584,5184
12.3632,5596
12.368,4928
12.3727,5511
12.3775,5446
12.3822,4582
12.387,5284
12.3918,4639
12.3965,5394
12.4013,5579
12.4061,5710
12.4108,5658
12.4156,5617
12.4203,5531
12.4251,5590
12.4299,6232
12.4346,5268
12.4394,5884
12.4441,5950
12.4489,5990
12.4537,5392
12.4584,5188
12.4632,5102
12.468,4891
12.4727,5390
12.4775,5070
12.4822,4973
12.487,5322
12.4918,5798
12.4965,6223
12.5013,5762
12.5061,5503
12.5108,6293
12.5156,5559
12.5203,5175
12.5251,5164
12.5299,5627
12.5346,5666
12.5394,5153
12.5442,6011
12.5489,5096
12.5537,4984
12.5584,5598
12.5632,5719
12.568,4688
12.5727,5439
12.5775,5862
12.5822,6002
12.587,6179
12.5918,5648
12.5965,5397
12.6013,5443
12.6061,5496
12.6108,4814
12.6156,5032
12.6203,5836
12.6251,4895
12.6299,4699
12.6346,4474
12.6394,5563
12.6442,5107
12.6489,5621
12.6537,5467
12.6584,5183
12.6632,5658
12.668,5748
12.6727,4905
12.6775,5589
12.6822,5289
12.687,5083
12.6918,5456
12.6965,5800
12.7013,4976
12.7061,5058
12.7108,5753
12.7156,5744
12.7203,5453
12.7251,6079
12.7299,5514
12.7346,5495
12.7394,5412
12.7442,5605
12.7489,5074
12.7537,5302
12.7584,5462
12.7632,5272
12.768,5254
12.7727,5395
12.7775,5223
12.7822,5869
12.787,6020
12.7918,5412
12.7965,5833
12.8013,5757
12.8061,5659
12.8108,5631
12.8156,5147
12.8203,5785
12.8251,5319
12.8299,5613
12.8346,5805
12.8394,6193
12.8442,5816
12.8489,5745
12.8537,5274
12.8584,5332
12.8632,5301
12.868,5847
12.8727,5618
12.8775,5783
12.8823,5921
12.887,5320
12.8918,6044
12.8965,5410
12.9013,4954
12.9061,5981
12.9108,5846
12.9156,6052
12.9203,5200
12.9251,5517
12.9299,5197
12.9346,6113
12.9394,5430
12.9442,6182
12.9489,5608
12.9537,5736
12.9584,6430
12.9632,5512
12.968,5016
12.9727,5646
12.9775,6504
12.9823,5620
12.987,5709
12.9918,5601
12.9965,5144
13.0013,5628
13.0061,5379
13.0108,5071
13.0156,5713
13.0203,6263
13.0251,5238
13.0299,4779
13.0346,4902
13.0394,5907
13.0442,5754
13.0489,5606
13.0537,5358
13.0584,4686
13.0632,6043
13.068,4881
13.0727,6239
13.0775,5717
13.0823,5059
13.087,6462
13.0918,5085
13.0965,5223
13.1013,5810
13.1061,5837
13.1108,5501
13.1156,6040
13.1203,5270
13.1251,5379
13.1299,5399
13.1346,5333
13.1394,5824
13.1442,5176
13.1489,4970
13.1537,5275
13.1584,5276
13.1632,5533
13.168,5477
13.1727,5611
13.1775,4913
13.1823,5396
13.187,5661
13.1918,4985
13.1965,4893
13.2013,4925
13.2061,5028
13.2108,5534
13.2156,5364
13.2204,5973
13.2251,5227
13.2299,5777
13.2346,5687
13.2394,5549
13.2442,5166
13.2489,4912
13.2537,5452
13.2584,6129
13.2632,5752
13.268,5114
13.2727,5149
13.2775,5240
13.2823,5696
13.287,5642
13.2918,6279
13.2965,5803
13.3013,5429
13.3061,5595
13.3108,5376
13.3156,5564
13.3204,5522
13.3251,5779
13.3299,5909
13.3346,5245
13.3394,5492
13.3442,5191
13.3489,4999
13.3537,5433
13.3584,5626
13.3632,5496
13.368,5507
13.3727,6444
13.3775,5499
13.3823,5228
13.387,5182
13.3918,5599
13.3965,5077
13.4013,6395
13.4061,5853
13.4108,5282
13.4156,5454
13.4204,6005
13.4251,5221
13.4299,5325
13.4346,6262
13.4394,4674
13.4442,5467
13.4489,4840
13.4537,5554
13.4584,5264
13.4632,5547
13.468,6344
13.4727,5589
13.4775,4894
13.4823,5358
13.487,6016
13.4918,4991
13.4965,6240
13.5013,5777
13.5061,5508
13.5108,5466
13.5156,5322
13.5204,5708
13.5251,4770
13.5299,5829
13.5346,5848
13.5394,4816
13.5442,4608
13.5489,4627
13.5537,5707
13.5585,5033
13.5632,6546
13.568,5450
13.5727,5703
13.5775,5361
13.5823,5123
13.587,5403
13.5918,4542
13.5965,5427
13.6013,5428
13.6061,5509
13.6108,5679
13.6156,5866
13.6204,5241
13.6251,5493
13.6299,6257
13.6346,4869
13.6394,5854
13.6442,6166
13.6489,5190
13.6537,5844
13.6585,5632
13.6632,4843
13.668,4803
13.6727,5171
13.6775,5588
13.6823,5336
13.687,5308
13.6918,5871
13.6965,5730
13.7013,5595
13.7061,4597
13.7108,5169
13.7156,5395
13.7204,4957
13.7251,5751
13.7299,5128
13.7346,4846
13.7394,5576
13.7442,5690
13.7489,5463
13.7537,6138
13.7585,5699
13.7632,6039
13.768,5745
13.7727,5215
13.7775,5562
13.7823,5375
13.787,5662
13.7918,5777
13.7965,5016
13.8013,5637
13.8061,5235
13.8108,5032
13.8156,6014
13.8204,5641
13.8251,5211
13.8299,5010
13.8346,5941
13.8394,5561
13.8442,5373
13.8489,5668
13.8537,5449
13.8585,5701
13.8632,6022
13.868,4781
13.8727,5993
13.8775,5108
13.8823,6078
13.887,5887
13.8918,5772
13.8966,5513
13.9013,6093
13.9061,5372
13.9108,5049
13.9156,5393
13.9204,5117
13.9251,5008
13.9299,5476
13.9346,5567
13.9394,6636
13.9442,6063
13.9489,5528
13.9537,5958
13.9585,5560
13.9632,5962
13.968,5810
13.9727,5514
13.9775,5568
13.9823,5212
13.987,6040
13.9918,5235
13.9966,5013
14.0013,6126
14.0061,5362
14.0108,5709
14.0156,5839
14.0204,5008
14.0251,6141
14.0299,6068
14.0346,6205
14.0394,4961
14.0442,5651
14.0489,6054
14.0537,5417
14.0585,6127
14.0632,5132
14.068,5948
14.0727,5154
14.0775,5153
14.0823,5696
14.087,5773
14.0918,5183
14.0966,6118
14.1013,4602
14.1061,5886
14.1108,6142
14.1156,6070
14.1204,5196
14.1251,5903
14.1299,5371
14.1346,5223
14.1394,5431
14.1442,5581
14.1489,5566
14.1537,5232
14.1585,5048
14.1632,5554
14.168,5013
14.1727,5326
14.1775,5338
14.1823,5761
14.187,5287
14.1918,5198
14.1966,4651
14.2013,5461
14.2061,4769
14.2108,5155
14.2156,5416
14.2204,5958
14.2251,5363
14.2299,5042
14.2347,5595
14.2394,5532
14.2442,5846
14.2489,5133
14.2537,5251
14.2585,5481
14.2632,5180
14.268,6045
14.2727,5175
14.2775,5309
14.2823,5424
14.287,5730
14.2918,6109
14.2966,5689
14.3013,5039
14.3061,6124
14.3108,5070
14.3156,6210
14.3204,5370
14.3251,6160
14.3299,4708
14.3347,5278
14.3394,6437
14.3442,4832
14.3489,5215
14.3537,5644
14.3585,5202
14.3632,4978
14.368,5474
14.3727,5648
14.3775,5977
14.3823,5719
14.387,5315
14.3918,5969
14.3966,5162
14.4013,5494
14.4061,5424
14.4108,5139
14.4156,4774
14.4204,5076
14.4251,5707
14.4299,5252
14.4347,5393
14.4394,5338
14.4442,5175
14.4489,5352
14.4537,5672
14.4585,4681
14.4632,5277
14.468,5618
14.4727,4817
14.4775,4836
14.4823,5024
14.487,5758
14.4918,4725
14.4966,5540
14.5013,5172
14.5061,6511
14.5108,4907
14.5156,4825
14.5204,5828
14.5251,6012
14.5299,5509
14.5347,5485
14.5394,4774
14.5442,5269
14.5489,4902
14.5537,5818
14.5585,5533
14.5632,6145
14.568,5721
14.5728,4977
14.5775,5036
14.5823,5061
14.587,5574
14.5918,5301
14.5966,5739
14.6013,5997
14.6061,4851
14.6108,5716
14.6156,5092
14.6204,5610
14.6251,4904
14.6299,5457
14.6347,5156
14.6394,4879
14.6442,5375
14.6489,5974
14.6537,6195
14.6585,5649
