D:\MassHunter\GCMS\1\data\Victoria Marland\22FEB\220223020.D 23 Feb 22  08:47 pm
Start of data points
3.09163,1070
3.0964,944
3.10117,793
3.10593,812
3.11068,999
3.11545,651
3.12022,993
3.12497,1122
3.12973,789
3.1345,841
3.13927,874
3.14402,941
3.14878,936
3.15355,636
3.1583,716
3.16307,893
3.16783,989
3.1726,1149
3.17735,1075
3.18212,1045
3.18688,1266
3.19163,1063
3.1964,1077
3.20117,923
3.20593,1372
3.21068,1228
3.21545,944
3.22022,907
3.22497,908
3.22973,962
3.2345,1098
3.23927,1009
3.24402,879
3.24878,907
3.25355,694
3.25832,932
3.26307,973
3.26783,757
3.2726,974
3.27735,911
3.28212,936
3.28688,732
3.29165,883
3.2964,974
3.30117,942
3.30593,852
3.31068,853
3.31545,990
3.32022,947
3.32498,1131
3.32973,864
3.3345,1083
3.33927,1022
3.34402,875
3.34878,1097
3.35355,847
3.35832,1074
3.36307,1207
3.36783,1097
3.3726,850
3.37735,945
3.38212,669
3.38688,1038
3.39165,1132
3.3964,800
3.40117,972
3.40593,989
3.41068,1092
3.41545,845
3.42022,472
3.42498,972
3.42973,810
3.4345,926
3.43927,1107
3.44403,871
3.44878,1386
3.45355,810
3.45832,930
3.46307,1030
3.46783,793
3.4726,1149
3.47737,875
3.48212,1005
3.48688,1009
3.49165,1271
3.4964,958
3.50117,843
3.50593,868
3.5107,873
3.51545,992
3.52022,793
3.52498,788
3.52973,1033
3.5345,786
3.53927,987
3.54403,931
3.54878,1242
3.55355,1004
3.55832,954
3.56307,1169
3.56783,1249
3.5726,1007
3.57737,1127
3.58212,1030
3.58688,1143
3.59165,897
3.5964,1015
3.60117,1027
3.60593,837
3.6107,973
3.61545,888
3.62022,715
3.62498,1090
3.62975,996
3.6345,1000
3.63927,985
3.64403,1006
3.64878,991
3.65355,1059
3.65832,961
3.66308,690
3.66783,1015
3.6726,955
3.67737,997
3.68212,1102
3.68688,1025
3.69165,1141
3.69642,995
3.70117,989
3.70593,1008
3.7107,980
3.71545,975
3.72022,1136
3.72498,763
3.72975,1077
3.7345,810
3.73927,925
3.74403,979
3.74878,803
3.75355,894
3.75832,918
3.76308,712
3.76783,1147
3.7726,834
3.77737,1011
3.78213,964
3.78688,776
3.79165,1108
3.79642,988
3.80117,557
3.80593,992
3.8107,1084
3.81547,757
3.82022,889
3.82498,1118
3.82975,1099
3.8345,939
3.83927,858
3.84403,941
3.8488,1070
3.85355,900
3.85832,891
3.86308,793
3.86783,1066
3.8726,1075
3.87737,841
3.88213,971
3.88688,944
3.89165,1270
3.89642,930
3.90117,870
3.90593,986
3.9107,898
3.91547,897
3.92022,835
3.92498,946
3.92975,831
3.9345,987
3.93927,937
3.94403,1104
3.9488,1162
3.95355,766
3.95832,689
3.96308,1040
3.96785,877
3.9726,1028
3.97737,975
3.98213,950
3.98688,945
3.99165,940
3.99642,1051
4.00118,702
4.00593,1014
4.0107,861
4.01547,985
4.02022,806
4.02498,1106
4.02975,939
4.03452,900
4.03927,960
4.04403,904
4.0488,1137
4.05355,1142
4.05832,934
4.06308,738
4.06785,910
4.0726,977
4.07737,1066
4.08213,1090
4.08688,992
4.09165,1120
4.09642,928
4.10118,933
4.10593,807
4.1107,968
4.11547,998
4.12023,1032
4.12498,1054
4.12975,1136
4.13452,1097
4.13927,902
4.14403,983
4.1488,1336
4.15357,1194
4.15832,1024
4.16308,1022
4.16785,934
4.1726,799
4.17737,663
4.18213,1350
4.1869,1053
4.19165,948
4.19642,1165
4.20118,921
4.20593,940
4.2107,931
4.21547,941
4.22023,1143
4.22498,1234
4.22975,1009
4.23452,766
4.23927,805
4.24403,759
4.2488,903
4.25357,742
4.25832,939
4.26308,877
4.26785,913
4.2726,699
4.27737,899
4.28213,1130
4.2869,1099
4.29165,1000
4.29642,1035
4.30118,1159
4.30595,781
4.3107,1153
4.31547,1000
4.32023,953
4.32498,1063
4.32975,1137
4.33452,973
4.33928,1114
4.34403,748
4.3488,1030
4.35357,1148
4.35832,831
4.36308,1028
4.36785,1041
4.37262,1225
4.37737,821
4.38213,1169
4.3869,829
4.39165,1022
4.39642,760
4.40118,938
4.40595,925
4.4107,1122
4.41547,723
4.42023,1233
4.42498,1129
4.42975,1024
4.43452,1124
4.43928,1078
4.44403,1055
4.4488,1024
4.45357,912
4.45833,1065
4.46308,787
4.46785,1120
4.47262,1095
4.47737,916
4.48213,1105
4.4869,1024
4.49167,914
4.49642,688
4.50118,976
4.50595,1016
4.5107,1163
4.51547,944
4.52023,1099
4.525,1199
4.52975,995
4.53452,978
4.53928,1094
4.54403,1002
4.5488,794
4.55357,866
4.55833,1100
4.56308,1204
4.56785,1287
4.57262,707
4.57737,1077
4.58213,1033
4.5869,1099
4.59167,1004
4.59642,974
4.60118,1160
4.60595,1148
4.6107,968
4.61547,1065
4.62023,820
4.625,1190
4.62975,747
4.63452,868
4.63928,1435
4.64405,1120
4.6488,961
4.65357,891
4.65833,882
4.66308,1094
4.66785,780
4.67262,921
4.67738,901
4.68213,935
4.6869,1060
4.69167,844
4.69642,1146
4.70118,1049
4.70595,1125
4.71072,1227
4.71547,1170
4.72023,1116
4.725,1145
4.72975,1134
4.73452,1118
4.73928,1269
4.74405,1227
4.7488,850
4.75357,1057
4.75833,1230
4.76308,1471
4.76785,1514
4.77262,1085
4.77738,1173
4.78213,1064
4.7869,1207
4.79167,865
4.79642,891
4.80118,946
4.80595,955
4.81072,872
4.81547,899
4.82023,1240
4.825,970
4.82977,1250
4.83452,1109
4.83928,1160
4.84405,1108
4.8488,1433
4.85357,961
4.85833,795
4.8631,1155
4.86785,1102
4.87262,1249
4.87738,991
4.88213,1254
4.8869,1226
4.89167,1043
4.89643,1121
4.90118,1205
4.90595,1190
4.91072,1099
4.91547,1340
4.92023,1314
4.925,1216
4.92977,1201
4.93452,1210
4.93928,1030
4.94405,1141
4.9488,1302
4.95357,1143
4.95833,1239
4.9631,1269
4.96785,1235
4.97262,1447
4.97738,1322
4.98215,899
4.9869,1426
4.99167,1340
4.99643,1042
5.00118,1587
5.00595,1350
5.01072,1335
5.01548,1139
5.02023,1404
5.025,1309
5.02977,1790
5.03452,1104
5.03928,1022
5.04405,1356
5.04882,1089
5.05357,1195
5.05833,1183
5.0631,1283
5.06785,1416
5.07262,1339
5.07738,1001
5.08215,1081
5.0869,1311
5.09167,1180
5.09643,1274
5.10118,1406
5.10595,863
5.11072,1123
5.11548,1015
5.12023,1272
5.125,1397
5.12977,1213
5.13452,1052
5.13928,1164
5.14405,1242
5.14882,1118
5.15357,1307
5.15833,1097
5.1631,1246
5.16787,2373
5.17262,3264
5.17738,1948
5.18215,1266
5.1869,1327
5.19167,2194
5.19643,1359
5.2012,1263
5.20595,1258
5.21072,1365
5.21548,1255
5.22023,1148
5.225,1650
5.22977,1472
5.23453,1198
5.23928,1377
5.24405,1336
5.24882,1286
5.25357,1502
5.25833,1280
5.2631,1328
5.26787,1337
5.27262,1642
5.27738,1313
5.28215,1339
5.2869,1551
5.29167,1399
5.29643,1313
5.3012,1313
5.30595,1087
5.31072,1380
5.31548,1292
5.32025,1419
5.325,1428
5.32977,1579
5.33453,1349
5.33928,1273
5.34405,1719
5.34882,1771
5.35358,1375
5.35833,897
5.3631,1272
5.36787,1103
5.37262,1450
5.37738,1457
5.38215,1175
5.38692,1360
5.39167,1240
5.39643,1151
5.4012,1405
5.40595,1425
5.41072,1017
5.41548,1391
5.42025,1038
5.425,1253
5.42977,1499
5.43453,1314
5.43928,1742
5.44405,1118
5.44882,1569
5.45358,1254
5.45833,1304
5.4631,1328
5.46787,1190
5.47262,2087
5.47738,2970
5.48215,2755
5.48692,1640
5.49167,1536
5.49643,1385
5.5012,1128
5.50597,1518
5.51072,1537
5.51548,1422
5.52025,1494
5.525,1489
5.52977,1358
5.53453,1449
5.5393,1304
5.54405,1400
5.54882,1434
5.55358,1568
5.55833,1439
5.5631,1384
5.56787,1153
5.57263,1473
5.57738,1491
5.58215,1446
5.58692,1624
5.59167,1835
5.59643,1433
5.6012,1472
5.60597,1357
5.61072,1645
5.61548,1404
5.62025,1529
5.625,1649
5.62977,1508
5.63453,1639
5.6393,1271
5.64405,1878
5.64882,1614
5.65358,1532
5.65835,1522
5.6631,1399
5.66787,1432
5.67263,1489
5.67738,1470
5.68215,1262
5.68692,1526
5.69168,1507
5.69643,1528
5.7012,1637
5.70597,1484
5.71072,1437
5.71548,1643
5.72025,1732
5.72502,1568
5.72977,1674
5.73453,1377
5.7393,1657
5.74405,1467
5.74882,1539
5.75358,1585
5.75835,1617
5.7631,1516
5.76787,1505
5.77263,1740
5.77738,1511
5.78215,1582
5.78692,1485
5.79168,1504
5.79643,1907
5.8012,1370
5.80597,1500
5.81072,2246
5.81548,2502
5.82025,1680
5.82502,1739
5.82977,1661
5.83453,1656
5.8393,1846
5.84407,1576
5.84882,1255
5.85358,1630
5.85835,1273
5.8631,1683
5.86787,1869
5.87263,1459
5.8774,1605
5.88215,1620
5.88692,1644
5.89168,1543
5.89643,1897
5.9012,1528
5.90597,1722
5.91073,1654
5.91548,1531
5.92025,1645
5.92502,1635
5.92977,1474
5.93453,1964
5.9393,1518
5.94407,1663
5.94882,1387
5.95358,2071
5.95835,1613
5.9631,1927
5.96787,1596
5.97263,1806
5.9774,1543
5.98215,2092
5.98692,1760
5.99168,1926
5.99645,1827
6.0012,1743
6.00597,1791
6.01073,1875
6.01548,2204
6.02025,1603
6.02502,1914
6.02978,1734
6.03453,1805
6.0393,1963
6.04407,1490
6.04882,1771
6.05358,1864
6.05835,1846
6.06312,2803
6.06787,1699
6.07263,1848
6.0774,1712
6.08215,1685
6.08692,1861
6.09168,1891
6.09645,1908
6.1012,2228
6.10597,2252
6.11073,1811
6.11548,1925
6.12025,2023
6.12502,1600
6.12978,1799
6.13453,1861
6.1393,2008
6.14407,2193
6.14882,1908
6.15358,1763
6.15835,2340
6.16312,2037
6.16787,1686
6.17263,1934
6.1774,1921
6.18217,1849
6.18692,1970
6.19168,2145
6.19645,2138
6.2012,1995
6.20597,2427
6.21073,1992
6.2155,2069
6.22025,1971
6.22502,2031
6.22978,2318
6.23453,2351
6.2393,2426
6.24407,1998
6.24883,2805
6.25358,2699
6.25835,2085
6.26312,2079
6.26787,1992
6.27263,2270
6.2774,2016
6.28217,2150
6.28692,2453
6.29168,2552
6.29645,3041
6.3012,1944
6.30597,2195
6.31073,2314
6.3155,2566
6.32025,2751
6.32502,2304
6.32978,2558
6.33453,2340
6.3393,2199
6.34407,2246
6.34883,2652
6.35358,2617
6.35835,2301
6.36312,2382
6.36788,2311
6.37263,2564
6.3774,2509
6.38217,2555
6.38692,2969
6.39168,2979
6.39645,3216
6.40122,2722
6.40597,2283
6.41073,2750
6.4155,2757
6.42025,2636
6.42502,2491
6.42978,2709
6.43455,2651
6.4393,2788
6.44407,2199
6.44883,2991
6.45358,2576
6.45835,2644
6.46312,2961
6.46788,2901
6.47263,2602
6.4774,2490
6.48217,3460
6.48692,3573
6.49168,40413
6.49645,327476
6.50122,2069643
6.50597,6231664
6.51073,6172940
6.5155,2125212
6.52027,678912
6.52502,338582
6.52978,213938
6.53455,150481
6.5393,117847
6.54407,93893
6.54883,74636
6.5536,61882
6.55835,53646
6.56312,47842
6.56788,42045
6.57263,38305
6.5774,34511
6.58217,30963
6.58693,27664
6.59168,25485
6.59645,24925
6.60122,23798
6.60597,21101
6.61073,19936
6.6155,16415
6.62027,16168
6.62502,16200
6.62978,15766
6.63455,14953
6.6393,13522
6.64407,12615
6.64883,13173
6.6536,13211
6.65835,12997
6.66312,12113
6.66788,11223
6.67263,10227
6.6774,9623
6.68217,10434
6.68693,9485
6.69168,8862
6.69645,10827
6.70122,8228
6.70598,8850
6.71073,7947
6.7155,8157
6.72027,8694
6.72502,9360
6.72978,8133
6.73455,7806
6.73932,7989
6.74407,7325
6.74883,7444
6.7536,7448
6.75835,7689
6.76312,6853
6.76788,6260
6.77265,7442
6.7774,7102
6.78217,6305
6.78693,6842
6.79168,7261
6.79645,5988
6.80122,6613
6.80598,6338
6.81073,6079
6.8155,6934
6.82027,5863
6.82502,7009
6.82978,7084
6.83455,6914
6.83932,6291
6.84407,7215
6.84883,6190
6.8536,6605
6.85837,6985
6.86312,7637
6.86788,7401
6.87265,7090
6.8774,6735
6.88217,8385
6.88693,7112
6.8917,6160
6.89645,6712
6.90122,6421
6.90598,5780
6.91073,6562
6.9155,6186
6.92027,6292
6.92503,6482
6.92978,7983
6.93455,10395
6.93932,11104
6.94407,9431
6.94883,7276
6.9536,6731
6.95837,6169
6.96312,6505
6.96788,5462
6.97265,6003
6.9774,6642
6.98217,5957
6.98693,5598
6.9917,6784
6.99645,6032
7.00122,5841
7.00598,5843
7.01073,6430
7.0155,6433
7.02027,6163
7.02503,6715
7.02978,6408
7.03455,6769
7.03932,7241
7.04408,5560
7.04883,5995
7.0536,6387
7.05837,6317
7.06312,5746
7.06788,6968
7.07265,6250
7.07742,6575
7.08217,6831
7.08693,6173
7.0917,6241
7.09645,5683
7.10122,5147
7.10598,6074
7.11075,6355
7.1155,6517
7.12027,6742
7.12503,6578
7.12978,6324
7.13455,6450
7.13932,5844
7.14408,6724
7.14883,6180
7.1536,6671
7.15837,6462
7.16312,6241
7.16788,6828
7.17265,6687
7.17742,6169
7.18217,6526
7.18693,6520
7.1917,6675
7.19647,6250
7.20122,5872
7.20598,6567
7.21075,6313
7.2155,6684
7.22027,6525
7.22503,6721
7.2298,6644
7.23455,6599
7.23932,6986
7.24408,5705
7.24883,6437
7.2536,6198
7.25837,6662
7.26313,6583
7.26788,6113
7.27265,6323
7.27742,6145
7.28217,5860
7.28693,5743
7.2917,6510
7.29647,7119
7.30122,5926
7.30598,5397
7.31075,6721
7.3155,6733
7.32027,5805
7.32503,6468
7.3298,6092
7.33455,7600
7.33932,6729
7.34408,5776
7.34883,6143
7.3536,6758
7.35837,6631
7.36313,6771
7.36788,6615
7.37265,6795
7.37742,5624
7.38218,6766
7.38693,6816
7.3917,5648
7.39647,6434
7.40122,5977
7.40598,5978
7.41075,6299
7.41552,6200
7.42027,6308
7.42503,6066
7.4298,7162
7.43455,7315
7.43932,6594
7.44408,7056
7.44885,7042
7.4536,7023
7.45837,7492
7.46313,7265
7.46788,6732
7.47265,6569
7.47742,6131
7.48218,5550
7.48693,6403
7.4917,6528
7.49647,6808
7.50122,6897
7.50598,6663
7.51075,7380
7.51552,7268
7.52027,6905
7.52503,6586
7.5298,6291
7.53455,6962
7.53932,7456
7.54408,7505
7.54885,6556
7.5536,6944
7.55837,5861
7.56313,6597
7.5679,6746
7.57265,6357
7.57742,6593
7.58218,7125
7.58693,6548
7.5917,6197
7.59647,6588
7.60123,6483
7.60598,7203
7.61075,7032
7.61552,7230
7.62027,7215
7.62503,6655
7.6298,7398
7.63457,7057
7.63932,7708
7.64408,7592
7.64885,7531
7.6536,6906
7.65837,6672
7.66313,6696
7.6679,5618
7.67265,5929
7.67742,5866
7.68218,6389
7.68693,6894
7.6917,6385
7.69647,6876
7.70123,6322
7.70598,5796
7.71075,6501
7.71552,5888
7.72028,7651
7.72503,6078
7.7298,5941
7.73457,6233
7.73932,6580
7.74408,7178
7.74885,6758
7.75362,6372
7.75837,6144
7.76313,6088
7.7679,7370
7.77265,7007
7.77742,13605
7.78218,32994
7.78695,74288
7.7917,131616
7.79647,173428
7.80123,154879
7.80598,104378
7.81075,57296
7.81552,33874
7.82028,25082
7.82503,22418
7.8298,18037
7.83457,16583
7.83932,14359
7.84408,12968
7.84885,13974
7.85362,12658
7.85837,12383
7.86313,10937
7.8679,12123
7.87265,11085
7.87742,11070
7.88218,11811
7.88695,13024
7.8917,12587
7.89647,12162
7.90123,10728
7.906,10171
7.91075,9204
7.91552,8867
7.92028,8917
7.92503,8745
7.9298,10008
7.93457,8294
7.93933,7664
7.94408,7797
7.94885,8459
7.95362,9296
7.95837,8828
7.96313,8374
7.9679,8537
7.97267,7527
7.97742,8714
7.98218,8635
7.98695,7926
7.9917,8386
7.99647,8118
8.00123,8532
8.006,7967
8.01075,8469
8.01552,8406
8.02028,8157
8.02503,7646
8.0298,7115
8.03457,8808
8.03933,8389
8.04408,7381
8.04885,7366
8.05362,7083
8.05838,7750
8.06313,7776
8.0679,6879
8.07267,7822
8.07742,7733
8.08218,7471
8.08695,7683
8.09172,7884
8.09647,7577
8.10123,7251
8.106,7487
8.11075,7548
8.11552,7807
8.12028,6347
8.12505,7932
8.1298,6981
8.13457,7530
8.13933,6876
8.14408,8204
8.14885,7648
8.15362,7503
8.15838,8028
8.16313,7621
8.1679,6924
8.17267,7244
8.17742,7197
8.18218,7613
8.18695,7152
8.19172,7641
8.19647,8164
8.20123,6677
8.206,7021
8.21075,7925
8.21552,6672
8.22028,7178
8.22505,6715
8.2298,7181
8.23457,7466
8.23933,7800
8.2441,7228
8.24885,6754
8.25362,7535
8.25838,7406
8.26313,7505
8.2679,6822
8.27267,8324
8.27743,7726
8.28218,8450
8.28695,7139
8.29172,7971
8.29647,7103
8.30123,6499
8.306,6780
8.31077,7427
8.31552,7430
8.32028,7024
8.32505,7076
8.3298,7326
8.33457,7159
8.33933,7616
8.3441,7619
8.34885,7073
8.35362,6498
8.35838,7259
8.36313,7846
8.3679,7785
8.37267,8449
8.37743,7344
8.38218,7629
8.38695,7123
8.39172,7131
8.39648,7742
8.40123,7551
8.406,6519
8.41077,7086
8.41552,7755
8.42028,7337
8.42505,6770
8.42982,7082
8.43457,6997
8.43933,7181
8.4441,7009
8.44885,6459
8.45362,6101
8.45838,6603
8.46315,7369
8.4679,7692
8.47267,7551
8.47743,7692
8.48218,6783
8.48695,6778
8.49172,7535
8.49648,7149
8.50123,6637
8.506,7244
8.51077,7458
8.51552,7475
8.52028,7373
8.52505,6786
8.52982,7073
8.53457,7134
8.53933,6190
8.5441,7286
8.54885,7378
8.55362,7037
8.55838,5949
8.56315,6962
8.5679,7126
8.57267,7732
8.57743,7242
8.5822,7785
8.58695,7717
8.59172,6989
8.59648,6772
8.60123,7081
8.606,6893
8.61077,8021
8.61553,6849
8.62028,7501
8.62505,7299
8.62982,7528
8.63457,6597
8.63933,6386
8.6441,5646
8.64887,8134
8.65362,7716
8.65838,7197
8.66315,7362
8.6679,6157
8.67267,6976
8.67743,6180
8.6822,6996
8.68695,7080
8.69172,6966
8.69648,6961
8.70123,6449
8.706,7492
8.71077,7428
8.71553,7076
8.72028,7206
8.72505,7164
8.72982,6961
8.73457,6400
8.73933,7667
8.7441,8069
8.74887,7521
8.75362,7543
8.75838,6109
8.76315,7757
8.76792,6700
8.77267,7278
8.77743,7129
8.7822,7156
8.78695,7047
8.79172,6954
8.79648,7596
8.80125,7080
8.806,7519
8.81077,6662
8.81553,6960
8.82028,6709
8.82505,6655
8.82982,6777
8.83458,6048
8.83933,7502
8.8441,7385
8.84887,6972
8.85362,7144
8.85838,6826
8.86315,6393
8.86792,7696
8.87267,8282
8.87743,6925
8.8822,7123
8.88695,6960
8.89172,7619
8.89648,7407
8.90125,6596
8.906,7465
8.91077,6495
8.91553,5956
8.9203,7648
8.92505,6663
8.92982,7289
8.93458,6848
8.93933,7140
8.9441,7687
8.94887,7102
8.95363,6309
8.95838,7207
8.96315,7103
8.96792,6740
8.97267,7072
8.97743,6109
8.9822,6271
8.98697,7270
8.99172,7132
8.99648,7344
9.00125,6697
9.006,7174
9.01077,6401
9.01553,7611
9.0203,7134
9.02505,6882
9.02982,7540
9.03458,6715
9.03933,7027
9.0441,6212
9.04887,7250
9.05363,7436
9.05838,7055
9.06315,6630
9.06792,6709
9.07267,7619
9.07743,6592
9.0822,7897
9.08697,6970
9.09172,6872
9.09648,6429
9.10125,7085
9.10602,7299
9.11077,6928
9.11553,7441
9.1203,6497
9.12505,7863
9.12982,6818
9.13458,6929
9.13935,7537
9.1441,7101
9.14887,6761
9.15363,6577
9.15838,7881
9.16315,7186
9.16792,7012
9.17268,7360
9.17743,7010
9.1822,7475
9.18697,7517
9.19172,6291
9.19648,7120
9.20125,5738
9.20602,6590
9.21077,6425
9.21553,6971
9.2203,7243
9.22505,7787
9.22982,6716
9.23458,6795
9.23935,6823
9.2441,6302
9.24887,7567
9.25363,6976
9.2584,7288
9.26315,6612
9.26792,7008
9.27268,6212
9.27743,7196
9.2822,7034
9.28697,6824
9.29173,7042
9.29648,7654
9.30125,7490
9.30602,6742
9.31077,7504
9.31553,7090
9.3203,7010
9.32507,7242
9.32982,7166
9.33458,7386
9.33935,7445
9.3441,7712
9.34887,6324
9.35363,6961
9.3584,6892
9.36315,6854
9.36792,7583
9.37268,6331
9.37743,6854
9.3822,6108
9.38697,6397
9.39173,6816
9.39648,6313
9.40125,6397
9.40602,6339
9.41077,7108
9.41553,6741
9.4203,6449
9.42507,7759
9.42982,6247
9.43458,6401
9.43935,7061
9.44412,7023
9.44887,7401
9.45363,6645
9.4584,7304
9.46315,6621
9.46792,6739
9.47268,7372
9.47745,6806
9.4822,6719
9.48697,7234
9.49173,6576
9.49648,6067
9.50125,6934
9.50602,8295
9.51078,6888
9.51553,6898
9.5203,7177
9.52507,7170
9.52982,6973
9.53458,7705
9.53935,6713
9.54412,6039
9.54887,6862
9.55363,7315
9.5584,7448
9.56315,6633
9.56792,7075
9.57268,6474
9.57745,7971
9.5822,7544
9.58697,6835
9.59173,7665
9.5965,6765
9.60125,6767
9.60602,7545
9.61078,7214
9.61553,7009
9.6203,7523
9.62507,6575
9.62983,7013
9.63458,7161
9.63935,7479
9.64412,7056
9.64887,7342
9.65363,6639
9.6584,7390
9.66317,7323
9.66792,6202
9.67268,6624
9.67745,6469
9.6822,7052
9.68697,6598
9.69173,7241
9.6965,6973
9.70125,6948
9.70602,6753
9.71078,6717
9.71553,7073
9.7203,6779
9.72507,6444
9.72983,6827
9.73458,6961
9.73935,7672
9.74412,6964
9.74887,6786
9.75363,7191
9.7584,6864
9.76317,6361
9.76792,6369
9.77268,8009
9.77745,7191
9.78222,6382
9.78697,6880
9.79173,7373
9.7965,6234
9.80125,6610
9.80602,6879
9.81078,5904
9.81555,6309
9.8203,6603
9.82507,6605
9.82983,7211
9.83458,6872
9.83935,6819
9.84412,6709
9.84888,6586
9.85363,6878
9.8584,6767
9.86317,6613
9.86792,7392
9.87268,5581
9.87745,6998
9.88222,6423
9.88697,6470
9.89173,6329
9.8965,6026
9.90125,6633
9.90602,6853
9.91078,6698
9.91555,6868
9.9203,5891
9.92507,6746
9.92983,6846
9.93458,6935
9.93935,7029
9.94412,6039
9.94888,7252
9.95363,6368
9.9584,6692
9.96317,6852
9.96793,7544
9.97268,6662
9.97745,6916
9.98222,6829
9.98697,6630
9.99173,7506
9.9965,7106
10.0013,6998
10.006,6388
10.0108,6980
10.0156,6183
10.0203,6612
10.0251,7864
10.0298,6557
10.0346,7113
10.0394,6136
10.0441,6936
10.0489,6705
10.0536,6540
10.0584,6002
10.0632,6107
10.0679,6916
10.0727,6770
10.0775,6328
10.0822,6178
10.087,7303
10.0917,7024
10.0965,6437
10.1013,6498
10.106,6710
10.1108,6156
10.1156,7563
10.1203,7719
10.1251,6665
10.1298,6923
10.1346,6538
10.1394,6564
10.1441,6111
10.1489,6447
10.1537,7849
10.1584,6762
10.1632,6867
10.1679,7279
10.1727,7296
10.1775,8209
10.1822,12011
10.187,21628
10.1917,36589
10.1965,60099
10.2013,93234
10.206,134508
10.2108,187975
10.2156,267638
10.2203,387556
10.2251,546572
10.2298,743172
10.2346,996290
10.2394,1302383
10.2441,1676845
10.2489,1976416
10.2537,2214717
10.2584,2263775
10.2632,1980713
10.2679,1503765
10.2727,1095796
10.2775,809360
10.2822,629063
10.287,509185
10.2917,433306
10.2965,377054
10.3013,330201
10.306,292675
10.3108,261032
10.3156,239061
10.3203,219196
10.3251,199537
10.3298,177682
10.3346,169358
10.3394,152413
10.3441,145011
10.3489,131563
10.3537,124349
10.3584,116539
10.3632,108910
10.3679,99142
10.3727,95874
10.3775,89296
10.3822,85920
10.387,80720
10.3917,76185
10.3965,72869
10.4013,67080
10.406,65663
10.4108,60697
10.4156,54163
10.4203,51739
10.4251,50615
10.4298,50532
10.4346,48207
10.4394,46829
10.4441,46082
10.4489,41241
10.4537,40779
10.4584,35974
10.4632,36097
10.4679,33471
10.4727,34254
10.4775,32613
10.4822,30515
10.487,28890
10.4918,29881
10.4965,28405
10.5013,26878
10.506,27740
10.5108,25453
10.5156,24263
10.5203,22865
10.5251,22630
10.5298,21372
10.5346,20481
10.5394,21172
10.5441,21208
10.5489,19923
10.5537,19535
10.5584,18892
10.5632,17009
10.5679,17703
10.5727,16520
10.5775,15995
10.5822,17379
10.587,15407
10.5918,14247
10.5965,14524
10.6013,15634
10.606,14998
10.6108,14446
10.6156,15297
10.6203,14147
10.6251,13982
10.6298,12706
10.6346,13729
10.6394,13168
10.6441,12281
10.6489,12984
10.6537,13973
10.6584,13283
10.6632,12124
10.6679,13135
10.6727,11705
10.6775,11918
10.6822,11671
10.687,10448
10.6918,11046
10.6965,11183
10.7013,11369
10.706,11351
10.7108,10931
10.7156,11594
10.7203,10027
10.7251,10808
10.7298,10628
10.7346,10443
10.7394,9513
10.7441,9986
10.7489,9182
10.7537,9487
10.7584,10924
10.7632,9975
10.7679,9632
10.7727,10200
10.7775,8195
10.7822,8860
10.787,9498
10.7918,9974
10.7965,9567
10.8013,10039
10.806,9654
10.8108,8578
10.8156,9836
10.8203,9690
10.8251,10104
10.8299,8405
10.8346,9084
10.8394,9672
10.8441,8952
10.8489,9100
10.8537,7687
10.8584,8462
10.8632,9323
10.8679,7920
10.8727,7844
10.8775,8695
10.8822,8387
10.887,8976
10.8918,8579
10.8965,8924
10.9013,8814
10.906,8705
10.9108,9159
10.9156,8212
10.9203,8294
10.9251,8920
10.9299,8559
10.9346,8445
10.9394,8901
10.9441,8457
10.9489,8493
10.9537,7847
10.9584,8223
10.9632,8544
10.9679,8311
10.9727,7933
10.9775,7117
10.9822,8596
10.987,8057
10.9918,8091
10.9965,8098
11.0013,8581
11.006,8372
11.0108,7527
11.0156,8341
11.0203,8674
11.0251,7753
11.0299,9009
11.0346,7849
11.0394,8409
11.0441,8098
11.0489,7273
11.0537,8005
11.0584,8043
11.0632,7483
11.0679,8123
11.0727,8038
11.0775,7704
11.0822,7922
11.087,7856
11.0918,7846
11.0965,7779
11.1013,7416
11.106,6845
11.1108,7649
11.1156,6972
11.1203,7058
11.1251,7575
11.1299,7694
11.1346,8032
11.1394,8008
11.1441,7761
11.1489,7176
11.1537,7081
11.1584,7052
11.1632,7531
11.168,8121
11.1727,7763
11.1775,7405
11.1822,8059
11.187,6858
11.1918,6700
11.1965,7652
11.2013,8442
11.206,7670
11.2108,6549
11.2156,7308
11.2203,7140
11.2251,7592
11.2299,6620
11.2346,6850
11.2394,7403
11.2441,7459
11.2489,8108
11.2537,8076
11.2584,8304
11.2632,7492
11.268,6876
11.2727,7476
11.2775,8000
11.2822,7508
11.287,7812
11.2918,7535
11.2965,7916
11.3013,7551
11.306,7346
11.3108,8020
11.3156,6889
11.3203,8123
11.3251,7435
11.3299,7321
11.3346,7193
11.3394,7319
11.3441,6757
11.3489,8162
11.3537,8131
11.3584,6670
11.3632,7239
11.368,7771
11.3727,6858
11.3775,7511
11.3822,6917
11.387,7458
11.3918,7748
11.3965,7505
11.4013,7449
11.406,6903
11.4108,7096
11.4156,6961
11.4203,7126
11.4251,7265
11.4299,7320
11.4346,8471
11.4394,7322
11.4441,7158
11.4489,7583
11.4537,7743
11.4584,7068
11.4632,7444
11.468,7385
11.4727,6952
11.4775,6846
11.4822,7478
11.487,6832
11.4918,6656
11.4965,7684
11.5013,6904
11.5061,7404
11.5108,6731
11.5156,7531
11.5203,7142
11.5251,8010
11.5299,6337
11.5346,7485
11.5394,7073
11.5441,6633
11.5489,7739
11.5537,7258
11.5584,7103
11.5632,7262
11.568,6949
11.5727,6918
11.5775,7149
11.5822,6419
11.587,8033
11.5918,6993
11.5965,7286
11.6013,7210
11.6061,6922
11.6108,7208
11.6156,7405
11.6203,7186
11.6251,7154
11.6299,6671
11.6346,7424
11.6394,7504
11.6441,7720
11.6489,7693
11.6537,6751
11.6584,7533
11.6632,7040
11.668,7599
11.6727,6789
11.6775,6528
11.6822,7978
11.687,7196
11.6918,7242
11.6965,7095
11.7013,7354
11.7061,7761
11.7108,7976
11.7156,6764
11.7203,7519
11.7251,6641
11.7299,7016
11.7346,7149
11.7394,7819
11.7441,7214
11.7489,7502
11.7537,7662
11.7584,7436
11.7632,7633
11.768,6951
11.7727,6352
11.7775,6695
11.7822,6701
11.787,7458
11.7918,7359
11.7965,7255
11.8013,7096
11.8061,7908
11.8108,7934
11.8156,6939
11.8203,7594
11.8251,7041
11.8299,7190
11.8346,6892
11.8394,6849
11.8442,6633
11.8489,6367
11.8537,7222
11.8584,7329
11.8632,7500
11.868,6674
11.8727,7122
11.8775,7094
11.8822,7731
11.887,6992
11.8918,7300
11.8965,8022
11.9013,7818
11.9061,7289
11.9108,6956
11.9156,7357
11.9203,6856
11.9251,7699
11.9299,6419
11.9346,7222
11.9394,6688
11.9442,7700
11.9489,7160
11.9537,6864
11.9584,6482
11.9632,6567
11.968,7363
11.9727,6687
11.9775,7940
11.9822,6960
11.987,6994
11.9918,7401
11.9965,6324
12.0013,6412
12.0061,7662
12.0108,6830
12.0156,6506
12.0203,6860
12.0251,6855
12.0299,7631
12.0346,7548
12.0394,7038
12.0442,7187
12.0489,6864
12.0537,7170
12.0584,7277
12.0632,7164
12.068,7239
12.0727,6777
12.0775,6957
12.0822,7353
12.087,7657
12.0918,6970
12.0965,6502
12.1013,6796
12.1061,6504
12.1108,8212
12.1156,7972
12.1203,6522
12.1251,6489
12.1299,7544
12.1346,7164
12.1394,6746
12.1442,7600
12.1489,7467
12.1537,7066
12.1584,6393
12.1632,6823
12.168,7701
12.1727,6325
12.1775,6837
12.1823,6711
12.187,8369
12.1918,6789
12.1965,7182
12.2013,6628
12.2061,6784
12.2108,6866
12.2156,6428
12.2203,7206
12.2251,6375
12.2299,6958
12.2346,6973
12.2394,6794
12.2442,7287
12.2489,6317
12.2537,7468
12.2584,6771
12.2632,6772
12.268,6898
12.2727,7222
12.2775,7181
12.2823,6639
12.287,7536
12.2918,7032
12.2965,5823
12.3013,6852
12.3061,7437
12.3108,6439
12.3156,7048
12.3203,7467
12.3251,6765
12.3299,6671
12.3346,7173
12.3394,6469
12.3442,7114
12.3489,6288
12.3537,6828
12.3584,6326
12.3632,6634
12.368,7038
12.3727,7589
12.3775,7409
12.3823,6810
12.387,6869
12.3918,7009
12.3965,6374
12.4013,6641
12.4061,7237
12.4108,6883
12.4156,7160
12.4203,6914
12.4251,7320
12.4299,6325
12.4346,6743
12.4394,7856
12.4442,7247
12.4489,7087
12.4537,7522
12.4584,5812
12.4632,6906
12.468,6853
12.4727,7169
12.4775,6241
12.4823,7007
12.487,6889
12.4918,6964
12.4965,6728
12.5013,6459
12.5061,7177
12.5108,7505
12.5156,6793
12.5204,5703
12.5251,6808
12.5299,6976
12.5346,6726
12.5394,7324
12.5442,6332
12.5489,7530
12.5537,5690
12.5584,7049
12.5632,6417
12.568,7537
12.5727,7253
12.5775,6469
12.5823,7035
12.587,7519
12.5918,6360
12.5965,6373
12.6013,6912
12.6061,7168
12.6108,6692
12.6156,7019
12.6204,7061
12.6251,5659
12.6299,6383
12.6346,7219
12.6394,6386
12.6442,6941
12.6489,6864
12.6537,5980
12.6584,6932
12.6632,7350
12.668,6839
12.6727,7071
12.6775,6662
12.6823,6753
12.687,6136
12.6918,6102
12.6965,6975
12.7013,6702
12.7061,6323
12.7108,6783
12.7156,6421
12.7204,6628
12.7251,7443
12.7299,7455
12.7346,6498
12.7394,7403
12.7442,6600
12.7489,6345
12.7537,7191
12.7584,7189
12.7632,7205
12.768,7069
12.7727,6564
12.7775,6542
12.7823,6740
12.787,6117
12.7918,7373
12.7965,6506
12.8013,6939
12.8061,7195
12.8108,5987
12.8156,5881
12.8204,6663
12.8251,7321
12.8299,6942
12.8346,6662
12.8394,7286
12.8442,6518
12.8489,7186
12.8537,6766
12.8585,7399
12.8632,7270
12.868,6323
12.8727,5499
12.8775,6814
12.8823,7411
12.887,7299
12.8918,6963
12.8965,6293
12.9013,6627
12.9061,6408
12.9108,6911
12.9156,7116
12.9204,6687
12.9251,6883
12.9299,6019
12.9346,6738
12.9394,6862
12.9442,6398
12.9489,6304
12.9537,7141
12.9585,6395
12.9632,6392
12.968,5621
12.9727,7263
12.9775,6141
12.9823,6664
12.987,6202
12.9918,7105
12.9965,6738
13.0013,7048
13.0061,6781
13.0108,7068
13.0156,7676
13.0204,6514
13.0251,6499
13.0299,7444
13.0346,6401
13.0394,7331
13.0442,7238
13.0489,6669
13.0537,6820
13.0585,5916
13.0632,6857
13.068,7308
13.0727,6709
13.0775,6972
13.0823,6798
13.087,6927
13.0918,8235
13.0965,6915
13.1013,6542
13.1061,6021
13.1108,5952
13.1156,7013
13.1204,6047
13.1251,6913
13.1299,6556
13.1346,6602
13.1394,6028
13.1442,6066
13.1489,6200
13.1537,7109
13.1585,6342
13.1632,6938
13.168,7694
13.1727,6944
13.1775,6323
13.1823,6180
13.187,6842
13.1918,6357
13.1965,6056
13.2013,6788
13.2061,6144
13.2108,6912
13.2156,7051
13.2204,7517
13.2251,6434
13.2299,5993
13.2346,6871
13.2394,6323
13.2442,6266
13.2489,6417
13.2537,6811
13.2585,7099
13.2632,7505
13.268,7319
13.2727,7023
13.2775,6823
13.2823,6639
13.287,6691
13.2918,6578
13.2966,6484
13.3013,7666
13.3061,6784
13.3108,6704
13.3156,6589
13.3204,6698
13.3251,6182
13.3299,6031
13.3346,6922
13.3394,5982
13.3442,6693
13.3489,6051
13.3537,5926
13.3585,7096
13.3632,5897
13.368,6690
13.3727,6722
13.3775,7200
13.3823,6078
13.387,6661
13.3918,6595
13.3966,6559
13.4013,7452
13.4061,6219
13.4108,7179
13.4156,6684
13.4204,7030
13.4251,5919
13.4299,6739
13.4346,6318
13.4394,7821
13.4442,7240
13.4489,6570
13.4537,7003
13.4585,7066
13.4632,6487
13.468,7156
13.4727,6944
13.4775,6230
13.4823,6571
13.487,7349
13.4918,6269
13.4966,6716
13.5013,6587
13.5061,6856
13.5108,6795
13.5156,6834
13.5204,6368
13.5251,6664
13.5299,6069
13.5346,6733
13.5394,6789
13.5442,6751
13.5489,6028
13.5537,6766
13.5585,6005
13.5632,6217
13.568,6473
13.5727,5995
13.5775,6040
13.5823,6242
13.587,6556
13.5918,6973
13.5966,6844
13.6013,6150
13.6061,7029
13.6108,6775
13.6156,6296
13.6204,7127
13.6251,6437
13.6299,6631
13.6347,6433
13.6394,7407
13.6442,7142
13.6489,7262
13.6537,6635
13.6585,6404
13.6632,6426
13.668,5742
13.6727,6198
13.6775,6598
13.6823,6097
13.687,6280
13.6918,7401
13.6966,6807
13.7013,5924
13.7061,6992
13.7108,5800
13.7156,7000
13.7204,6300
13.7251,6297
13.7299,6229
13.7347,6319
13.7394,6527
13.7442,6631
13.7489,6216
13.7537,6426
13.7585,5791
13.7632,6766
13.768,6387
13.7727,6990
13.7775,6399
13.7823,7295
13.787,7114
13.7918,6514
13.7966,6552
13.8013,6092
13.8061,6486
13.8108,5624
13.8156,6994
13.8204,6964
13.8251,7192
13.8299,6688
13.8347,6896
13.8394,6534
13.8442,5846
13.8489,6995
13.8537,7399
13.8585,6036
13.8632,6898
13.868,6718
13.8727,7332
13.8775,6644
13.8823,6372
13.887,6460
13.8918,7079
13.8966,5946
13.9013,6251
13.9061,6121
13.9108,6226
13.9156,6255
13.9204,7151
13.9251,6622
13.9299,5856
13.9347,7275
13.9394,6822
13.9442,6621
13.9489,6660
13.9537,6338
13.9585,6802
13.9632,6142
13.968,6223
13.9728,6319
13.9775,6719
13.9823,6046
13.987,6526
13.9918,6883
13.9966,5562
14.0013,6755
14.0061,6899
14.0108,7023
14.0156,5807
14.0204,6275
14.0251,7185
14.0299,6677
14.0347,6114
14.0394,6996
14.0442,6080
14.0489,6926
14.0537,6347
14.0585,6888
14.0632,6577
14.068,6029
14.0728,6867
14.0775,7025
14.0823,6884
14.087,6248
14.0918,6311
14.0966,6431
14.1013,6513
14.1061,6710
14.1108,6895
14.1156,6454
14.1204,6632
14.1251,6425
14.1299,5906
14.1347,6565
14.1394,7215
14.1442,7140
14.1489,6460
14.1537,7227
14.1585,6877
14.1632,5953
14.168,7035
14.1728,6940
14.1775,6013
14.1823,6503
14.187,6844
14.1918,6333
14.1966,7008
14.2013,7379
14.2061,6013
14.2108,6858
14.2156,7162
14.2204,7115
14.2251,6607
14.2299,6547
14.2347,6271
14.2394,6128
14.2442,6679
14.2489,6091
14.2537,6547
14.2585,6937
14.2632,6588
14.268,6686
14.2728,6930
14.2775,5719
14.2823,6830
14.287,6751
14.2918,6633
14.2966,7137
14.3013,6347
14.3061,5894
14.3109,5813
14.3156,6682
14.3204,6495
14.3251,6327
14.3299,6820
14.3347,5827
14.3394,5448
14.3442,6162
14.3489,7093
14.3537,5875
14.3585,5684
14.3632,6033
14.368,6270
14.3728,5903
14.3775,5720
14.3823,7096
14.387,6522
14.3918,6658
14.3966,6757
14.4013,6430
14.4061,6046
14.4109,6499
14.4156,7187
14.4204,6226
14.4251,6083
14.4299,6079
14.4347,6759
14.4394,7097
14.4442,6795
14.4489,6723
14.4537,6756
14.4585,6776
14.4632,6141
14.468,6412
14.4728,6073
14.4775,6256
14.4823,6652
14.487,6659
14.4918,7046
14.4966,6750
14.5013,5469
14.5061,6245
14.5109,6386
14.5156,6137
14.5204,6730
14.5251,7021
14.5299,6400
14.5347,6414
14.5394,6207
14.5442,6168
14.5489,7297
14.5537,6653
14.5585,6669
14.5632,5986
14.568,6944
14.5728,6302
14.5775,6535
14.5823,6468
14.587,6850
14.5918,6708
14.5966,6024
14.6013,6550
14.6061,6865
14.6109,7093
14.6156,6484
14.6204,6974
14.6251,6819
14.6299,6375
14.6347,5857
14.6394,6430
14.6442,6318
14.649,6296
14.6537,5813
14.6585,6738
