D:\MassHunter\GCMS\1\data\Victoria Marland\22FEB\220223021.D 23 Feb 22  09:07 pm
Start of data points
3.09148,713
3.09625,795
3.10102,781
3.10578,1150
3.11053,917
3.1153,819
3.12007,1020
3.12482,709
3.12958,890
3.13435,984
3.13912,765
3.14387,887
3.14863,827
3.1534,605
3.15815,883
3.16292,1105
3.16768,1084
3.17245,918
3.1772,1223
3.18197,747
3.18673,588
3.19148,901
3.19625,805
3.20102,889
3.20578,944
3.21053,848
3.2153,1059
3.22007,920
3.22482,1162
3.22958,859
3.23435,1252
3.23912,686
3.24387,1008
3.24863,860
3.2534,1106
3.25817,932
3.26292,948
3.26768,1009
3.27245,878
3.2772,949
3.28197,740
3.28673,779
3.2915,931
3.29625,907
3.30102,793
3.30578,652
3.31053,731
3.3153,816
3.32007,990
3.32483,999
3.32958,852
3.33435,807
3.33912,948
3.34387,1108
3.34863,1018
3.3534,662
3.35817,696
3.36292,989
3.36768,981
3.37245,1009
3.3772,737
3.38197,811
3.38673,1027
3.3915,924
3.39625,1222
3.40102,754
3.40578,767
3.41053,782
3.4153,766
3.42007,850
3.42483,828
3.42958,1003
3.43435,767
3.43912,670
3.44388,883
3.44863,819
3.4534,824
3.45817,584
3.46292,981
3.46768,937
3.47245,825
3.47722,859
3.48197,876
3.48673,1055
3.4915,934
3.49625,891
3.50102,1123
3.50578,915
3.51055,800
3.5153,1575
3.52007,7251
3.52483,16049
3.52958,15502
3.53435,7082
3.53912,1375
3.54388,1026
3.54863,1098
3.5534,843
3.55817,956
3.56292,911
3.56768,645
3.57245,722
3.57722,872
3.58197,884
3.58673,689
3.5915,870
3.59625,981
3.60102,646
3.60578,904
3.61055,735
3.6153,960
3.62007,681
3.62483,897
3.6296,1120
3.63435,1006
3.63912,799
3.64388,1042
3.64863,920
3.6534,850
3.65817,753
3.66293,1164
3.66768,887
3.67245,612
3.67722,885
3.68197,735
3.68673,992
3.6915,932
3.69627,707
3.70102,838
3.70578,983
3.71055,1068
3.7153,825
3.72007,929
3.72483,768
3.7296,661
3.73435,1260
3.73912,898
3.74388,705
3.74863,996
3.7534,1038
3.75817,780
3.76293,1160
3.76768,1107
3.77245,1010
3.77722,1144
3.78198,903
3.78673,1011
3.7915,823
3.79627,778
3.80102,833
3.80578,866
3.81055,1157
3.81532,1005
3.82007,901
3.82483,740
3.8296,768
3.83435,706
3.83912,1014
3.84388,915
3.84865,863
3.8534,990
3.85817,792
3.86293,759
3.86768,691
3.87245,717
3.87722,917
3.88198,755
3.88673,911
3.8915,970
3.89627,950
3.90102,688
3.90578,1034
3.91055,680
3.91532,937
3.92007,1078
3.92483,816
3.9296,909
3.93435,980
3.93912,945
3.94388,909
3.94865,1058
3.9534,917
3.95817,897
3.96293,1074
3.9677,669
3.97245,880
3.97722,962
3.98198,1038
3.98673,990
3.9915,957
3.99627,890
4.00103,928
4.00578,890
4.01055,831
4.01532,932
4.02007,876
4.02483,824
4.0296,1053
4.03437,937
4.03912,1271
4.04388,954
4.04865,889
4.0534,769
4.05817,878
4.06293,730
4.0677,1020
4.07245,1051
4.07722,1091
4.08198,1015
4.08673,953
4.0915,818
4.09627,939
4.10103,868
4.10578,852
4.11055,964
4.11532,1112
4.12008,771
4.12483,822
4.1296,734
4.13437,913
4.13912,943
4.14388,1014
4.14865,1039
4.15342,886
4.15817,873
4.16293,821
4.1677,910
4.17245,1036
4.17722,655
4.18198,911
4.18675,989
4.1915,995
4.19627,658
4.20103,809
4.20578,1023
4.21055,3407
4.21532,7939
4.22008,11055
4.22483,6137
4.2296,1627
4.23437,828
4.23912,1090
4.24388,689
4.24865,674
4.25342,744
4.25817,1045
4.26293,1133
4.2677,770
4.27245,793
4.27722,769
4.28198,765
4.28675,1062
4.2915,1166
4.29627,1129
4.30103,1207
4.3058,865
4.31055,1159
4.31532,864
4.32008,797
4.32483,863
4.3296,743
4.33437,917
4.33913,1096
4.34388,989
4.34865,791
4.35342,898
4.35817,914
4.36293,1098
4.3677,837
4.37247,1110
4.37722,762
4.38198,1045
4.38675,978
4.3915,1031
4.39627,1362
4.40103,950
4.4058,1450
4.41055,1482
4.41532,1430
4.42008,935
4.42483,1193
4.4296,1084
4.43437,1180
4.43913,1220
4.44388,943
4.44865,1249
4.45342,878
4.45818,1085
4.46293,1153
4.4677,767
4.47247,931
4.47722,836
4.48198,1023
4.48675,940
4.49152,787
4.49627,993
4.50103,825
4.5058,1137
4.51055,808
4.51532,1222
4.52008,696
4.52485,1112
4.5296,1039
4.53437,1070
4.53913,1040
4.54388,928
4.54865,1011
4.55342,1234
4.55818,922
4.56293,951
4.5677,866
4.57247,1306
4.57722,961
4.58198,966
4.58675,1047
4.59152,980
4.59627,905
4.60103,1195
4.6058,956
4.61055,989
4.61532,1101
4.62008,1057
4.62485,1110
4.6296,883
4.63437,1121
4.63913,979
4.6439,750
4.64865,1134
4.65342,934
4.65818,782
4.66293,1182
4.6677,908
4.67247,1190
4.67723,1042
4.68198,1068
4.68675,1013
4.69152,1144
4.69627,1215
4.70103,1010
4.7058,964
4.71057,978
4.71532,1015
4.72008,1076
4.72485,984
4.7296,940
4.73437,1221
4.73913,910
4.7439,1115
4.74865,1014
4.75342,1248
4.75818,858
4.76293,1023
4.7677,1196
4.77247,1058
4.77723,1067
4.78198,1101
4.78675,1213
4.79152,1101
4.79628,1695
4.80103,3019
4.8058,6112
4.81057,6606
4.81532,3781
4.82008,952
4.82485,1088
4.82962,1398
4.83437,922
4.83913,1249
4.8439,924
4.84865,1401
4.85342,975
4.85818,1313
4.86295,1134
4.8677,876
4.87247,1207
4.87723,883
4.88198,1051
4.88675,1279
4.89152,753
4.89628,1225
4.90103,945
4.9058,1303
4.91057,1197
4.91532,777
4.92008,1318
4.92485,1285
4.92962,1246
4.93437,1195
4.93913,1084
4.9439,867
4.94865,1206
4.95342,760
4.95818,1117
4.96295,1024
4.9677,1030
4.97247,1128
4.97723,1046
4.982,1672
4.98675,2070
4.99152,1664
4.99628,1847
5.00103,1370
5.0058,1292
5.01057,1203
5.01533,1205
5.02008,1189
5.02485,1283
5.02962,1102
5.03437,1211
5.03913,1196
5.0439,1316
5.04867,1282
5.05342,1181
5.05818,1044
5.06295,1145
5.0677,1357
5.07247,1295
5.07723,1213
5.082,1323
5.08675,1152
5.09152,973
5.09628,914
5.10103,938
5.1058,1046
5.11057,1064
5.11533,1075
5.12008,1281
5.12485,1415
5.12962,1295
5.13437,1418
5.13913,1305
5.1439,1477
5.14867,1189
5.15342,955
5.15818,1441
5.16295,1255
5.16772,1151
5.17247,1342
5.17723,1254
5.182,1230
5.18675,952
5.19152,969
5.19628,1390
5.20105,1186
5.2058,1252
5.21057,999
5.21533,1377
5.22008,1166
5.22485,1232
5.22962,1364
5.23438,1193
5.23913,1387
5.2439,1311
5.24867,1305
5.25342,1085
5.25818,1476
5.26295,1582
5.26772,1284
5.27247,1241
5.27723,1315
5.282,1348
5.28675,1061
5.29152,1342
5.29628,1130
5.30105,1163
5.3058,1072
5.31057,1321
5.31533,1533
5.3201,1689
5.32485,3018
5.32962,4281
5.33438,3826
5.33913,2131
5.3439,1573
5.34867,1301
5.35343,1287
5.35818,927
5.36295,1410
5.36772,1161
5.37247,1241
5.37723,1414
5.382,1104
5.38677,1350
5.39152,938
5.39628,1189
5.40105,1235
5.4058,1384
5.41057,1242
5.41533,1728
5.4201,1297
5.42485,1287
5.42962,1383
5.43438,1324
5.43913,1277
5.4439,1380
5.44867,892
5.45343,1503
5.45818,1383
5.46295,1079
5.46772,1214
5.47247,1509
5.47723,1204
5.482,1188
5.48677,1591
5.49152,1755
5.49628,2754
5.50105,3488
5.50582,2371
5.51057,1656
5.51533,1407
5.5201,1499
5.52485,1259
5.52962,1148
5.53438,1421
5.53915,1606
5.5439,1186
5.54867,1289
5.55343,1529
5.55818,1185
5.56295,1394
5.56772,1452
5.57248,1447
5.57723,1598
5.582,1373
5.58677,1390
5.59152,1423
5.59628,1351
5.60105,1504
5.60582,1613
5.61057,1456
5.61533,1167
5.6201,1457
5.62485,1401
5.62962,1458
5.63438,1370
5.63915,1016
5.6439,1686
5.64867,1461
5.65343,1415
5.6582,1396
5.66295,1650
5.66772,1193
5.67248,1541
5.67723,1404
5.682,1450
5.68677,1294
5.69153,1534
5.69628,1275
5.70105,1586
5.70582,1586
5.71057,1601
5.71533,1273
5.7201,1562
5.72487,1670
5.72962,1271
5.73438,1632
5.73915,1446
5.7439,1333
5.74867,1571
5.75343,1359
5.7582,1301
5.76295,1510
5.76772,1314
5.77248,1528
5.77723,1563
5.782,1626
5.78677,1490
5.79153,1752
5.79628,2257
5.80105,3891
5.80582,4965
5.81057,3733
5.81533,1616
5.8201,1740
5.82487,1493
5.82962,1459
5.83438,1454
5.83915,1282
5.84392,1476
5.84867,2058
5.85343,1462
5.8582,1544
5.86295,1550
5.86772,1171
5.87248,1608
5.87725,1651
5.882,1581
5.88677,1942
5.89153,1883
5.89628,1630
5.90105,1709
5.90582,1548
5.91058,1672
5.91533,1755
5.9201,1830
5.92487,1655
5.92962,1807
5.93438,1356
5.93915,1762
5.94392,1381
5.94867,1271
5.95343,1808
5.9582,2618
5.96295,4037
5.96772,4594
5.97248,3478
5.97725,2219
5.982,2106
5.98677,2002
5.99153,1819
5.9963,1903
6.00105,1678
6.00582,1952
6.01058,1531
6.01533,1677
6.0201,1640
6.02487,1689
6.02963,2002
6.03438,2067
6.03915,1836
6.04392,1368
6.04867,1590
6.05343,1768
6.0582,1770
6.06297,1602
6.06772,1791
6.07248,1363
6.07725,1730
6.082,2069
6.08677,1727
6.09153,1784
6.0963,2011
6.10105,1740
6.10582,1813
6.11058,1842
6.11533,1809
6.1201,1873
6.12487,1698
6.12963,1723
6.13438,1896
6.13915,2281
6.14392,1596
6.14867,1796
6.15343,1985
6.1582,2112
6.16297,1790
6.16772,1775
6.17248,2123
6.17725,2028
6.18202,2079
6.18677,2459
6.19153,2290
6.1963,2020
6.20105,1960
6.20582,2052
6.21058,1575
6.21535,2104
6.2201,1916
6.22487,2380
6.22963,3279
6.23438,5180
6.23915,4104
6.24392,2379
6.24868,1911
6.25343,2337
6.2582,2385
6.26297,2249
6.26772,2105
6.27248,2034
6.27725,2252
6.28202,2032
6.28677,2301
6.29153,2186
6.2963,1935
6.30105,2008
6.30582,2268
6.31058,2098
6.31535,2278
6.3201,2407
6.32487,2595
6.32963,2545
6.33438,2329
6.33915,2175
6.34392,2281
6.34868,2296
6.35343,2380
6.3582,1992
6.36297,2256
6.36773,2167
6.37248,2367
6.37725,2414
6.38202,2849
6.38677,4315
6.39153,6222
6.3963,5596
6.40107,3848
6.40582,2872
6.41058,2738
6.41535,2987
6.4201,2125
6.42487,2431
6.42963,2599
6.4344,2655
6.43915,2516
6.44392,3234
6.44868,2583
6.45343,2634
6.4582,2749
6.46297,2499
6.46773,3235
6.47248,2920
6.47725,2761
6.48202,2412
6.48677,4199
6.49153,42005
6.4963,349819
6.50107,2203357
6.50582,6536103
6.51058,6869992
6.51535,2523121
6.52012,745667
6.52487,357320
6.52963,221540
6.5344,158902
6.53915,118867
6.54392,95632
6.54868,76957
6.55345,65494
6.5582,53736
6.56297,46159
6.56773,42545
6.57248,36653
6.57725,32138
6.58202,28997
6.58678,26066
6.59153,25088
6.5963,21587
6.60107,20739
6.60582,20419
6.61058,17916
6.61535,17397
6.62012,17197
6.62487,18531
6.62963,19371
6.6344,16665
6.63915,13314
6.64392,11915
6.64868,9588
6.65345,10814
6.6582,10713
6.66297,10723
6.66773,11080
6.67248,9923
6.67725,9381
6.68202,10092
6.68678,9358
6.69153,8336
6.6963,8727
6.70107,8412
6.70583,8804
6.71058,9078
6.71535,8406
6.72012,8149
6.72487,7427
6.72963,7828
6.7344,7955
6.73917,6847
6.74392,7239
6.74868,6428
6.75345,6670
6.7582,7043
6.76297,6898
6.76773,6285
6.7725,6779
6.77725,6883
6.78202,8227
6.78678,10165
6.79153,10396
6.7963,9256
6.80107,8185
6.80583,7668
6.81058,6627
6.81535,5658
6.82012,6087
6.82487,6889
6.82963,6032
6.8344,6356
6.83917,5319
6.84392,6956
6.84868,6793
6.85345,5010
6.85822,5564
6.86297,5229
6.86773,6024
6.8725,6787
6.87725,6181
6.88202,5501
6.88678,4816
6.89155,5612
6.8963,5626
6.90107,5602
6.90583,6259
6.91058,4959
6.91535,5493
6.92012,6393
6.92488,5404
6.92963,5835
6.9344,5043
6.93917,5025
6.94392,5613
6.94868,6032
6.95345,5376
6.95822,4750
6.96297,5660
6.96773,5080
6.9725,4721
6.97725,5143
6.98202,5515
6.98678,6394
6.99155,5583
6.9963,5229
7.00107,5382
7.00583,5069
7.01058,6988
7.01535,8275
7.02012,8196
7.02488,7829
7.02963,7420
7.0344,6462
7.03917,5652
7.04393,5566
7.04868,5056
7.05345,6269
7.05822,6172
7.06297,4415
7.06773,5297
7.0725,6099
7.07727,5782
7.08202,5489
7.08678,5093
7.09155,6225
7.0963,5600
7.10107,5310
7.10583,5638
7.1106,5138
7.11535,5136
7.12012,5584
7.12488,5624
7.12963,5420
7.1344,5343
7.13917,5496
7.14393,5833
7.14868,5951
7.15345,5575
7.15822,5712
7.16297,5378
7.16773,5159
7.1725,5110
7.17727,5716
7.18202,4757
7.18678,5802
7.19155,6148
7.19632,5410
7.20107,7191
7.20583,6635
7.2106,8637
7.21535,9151
7.22012,7398
7.22488,6640
7.22965,6893
7.2344,6374
7.23917,5798
7.24393,5940
7.24868,6348
7.25345,4876
7.25822,6204
7.26298,5679
7.26773,5759
7.2725,5778
7.27727,5961
7.28202,6530
7.28678,6298
7.29155,5851
7.29632,5512
7.30107,5845
7.30583,5399
7.3106,5230
7.31535,5602
7.32012,6028
7.32488,5499
7.32965,6033
7.3344,6120
7.33917,5140
7.34393,5587
7.34868,5651
7.35345,6024
7.35822,5712
7.36298,5134
7.36773,6174
7.3725,5871
7.37727,5460
7.38203,5310
7.38678,5171
7.39155,5953
7.39632,6250
7.40107,5519
7.40583,4498
7.4106,6507
7.41537,6628
7.42012,6362
7.42488,5557
7.42965,6052
7.4344,5811
7.43917,5428
7.44393,5977
7.4487,5658
7.45345,6297
7.45822,6881
7.46298,5763
7.46773,8062
7.4725,7320
7.47727,7871
7.48203,7110
7.48678,6454
7.49155,7017
7.49632,6782
7.50107,5597
7.50583,6053
7.5106,5939
7.51537,6230
7.52012,6137
7.52488,5747
7.52965,6522
7.5344,6530
7.53917,5905
7.54393,7066
7.5487,5809
7.55345,6010
7.55822,6656
7.56298,5852
7.56775,6059
7.5725,5911
7.57727,6056
7.58203,6319
7.58678,6660
7.59155,6337
7.59632,5628
7.60108,5517
7.60583,6145
7.6106,5350
7.61537,6232
7.62012,6195
7.62488,6648
7.62965,5662
7.63442,5787
7.63917,6457
7.64393,5981
7.6487,5625
7.65345,6143
7.65822,5924
7.66298,5961
7.66775,5969
7.6725,5911
7.67727,5374
7.68203,6618
7.68678,5224
7.69155,5896
7.69632,5740
7.70108,6074
7.70583,5249
7.7106,5902
7.71537,6543
7.72013,5925
7.72488,7353
7.72965,7046
7.73442,7129
7.73917,6894
7.74393,6371
7.7487,5720
7.75347,6663
7.75822,5462
7.76298,6928
7.76775,6509
7.7725,5528
7.77727,5714
7.78203,5866
7.7868,5989
7.79155,5602
7.79632,5420
7.80108,5587
7.80583,6758
7.8106,5517
7.81537,5820
7.82013,6045
7.82488,7039
7.82965,6015
7.83442,6490
7.83917,5510
7.84393,6161
7.8487,6954
7.85347,6018
7.85822,6173
7.86298,6204
7.86775,6225
7.8725,5692
7.87727,5960
7.88203,6025
7.8868,6478
7.89155,6707
7.89632,6746
7.90108,5759
7.90585,5600
7.9106,5703
7.91537,5993
7.92013,6534
7.92488,7123
7.92965,6370
7.93442,6072
7.93918,6425
7.94393,5935
7.9487,5890
7.95347,5225
7.95822,6505
7.96298,6163
7.96775,5774
7.97252,5914
7.97727,5400
7.98203,6490
7.9868,6238
7.99155,6178
7.99632,6693
8.00108,6141
8.00585,6139
8.0106,6022
8.01537,6847
8.02013,7223
8.02488,7037
8.02965,7347
8.03442,6847
8.03918,5888
8.04393,5862
8.0487,6158
8.05347,5485
8.05823,5631
8.06298,4738
8.06775,6483
8.07252,6107
8.07727,5700
8.08203,6197
8.0868,5381
8.09157,6073
8.09632,6247
8.10108,5950
8.10585,6263
8.1106,6483
8.11537,6167
8.12013,5556
8.1249,5685
8.12965,6741
8.13442,6083
8.13918,5849
8.14393,5498
8.1487,5222
8.15347,6669
8.15823,5924
8.16298,6805
8.16775,4417
8.17252,6168
8.17727,5905
8.18203,6081
8.1868,6320
8.19157,5846
8.19632,6467
8.20108,6523
8.20585,5723
8.2106,5769
8.21537,5701
8.22013,5632
8.2249,6539
8.22965,6516
8.23442,5312
8.23918,6453
8.24395,5626
8.2487,5596
8.25347,6242
8.25823,5689
8.26298,6512
8.26775,5628
8.27252,6176
8.27728,5571
8.28203,6028
8.2868,5168
8.29157,5757
8.29632,6707
8.30108,5279
8.30585,5948
8.31062,5368
8.31537,5632
8.32013,5682
8.3249,6291
8.32965,6304
8.33442,6355
8.33918,6080
8.34395,6232
8.3487,7080
8.35347,6076
8.35823,6932
8.36298,5563
8.36775,6177
8.37252,7253
8.37728,7321
8.38203,6515
8.3868,6786
8.39157,6208
8.39632,6779
8.40108,6501
8.40585,6387
8.41062,6096
8.41537,6539
8.42013,6138
8.4249,5759
8.42967,6008
8.43442,6170
8.43918,6381
8.44395,6524
8.4487,5398
8.45347,5698
8.45823,6402
8.463,6233
8.46775,5979
8.47252,5725
8.47728,5071
8.48203,5854
8.4868,5877
8.49157,5305
8.49633,6644
8.50108,5827
8.50585,6234
8.51062,5822
8.51537,5696
8.52013,5898
8.5249,5715
8.52967,6423
8.53442,7124
8.53918,5414
8.54395,6149
8.5487,5945
8.55347,5796
8.55823,5887
8.563,6963
8.56775,5824
8.57252,6280
8.57728,5930
8.58205,5762
8.5868,5983
8.59157,5993
8.59633,6144
8.60108,5258
8.60585,6868
8.61062,5713
8.61538,5724
8.62013,5874
8.6249,5900
8.62967,6079
8.63442,6112
8.63918,6352
8.64395,5398
8.64872,6102
8.65347,7578
8.65823,5899
8.663,6427
8.66775,5937
8.67252,5487
8.67728,5787
8.68205,6347
8.6868,6195
8.69157,5608
8.69633,7757
8.70108,6208
8.70585,6664
8.71062,6505
8.71538,6356
8.72013,7422
8.7249,6939
8.72967,6896
8.73442,6494
8.73918,6057
8.74395,6836
8.74872,5973
8.75347,6895
8.75823,5692
8.763,6365
8.76777,6398
8.77252,6632
8.77728,6514
8.78205,6265
8.7868,6309
8.79157,5964
8.79633,6481
8.8011,6062
8.80585,6141
8.81062,5169
8.81538,5865
8.82013,5881
8.8249,6789
8.82967,6331
8.83443,5775
8.83918,6055
8.84395,5710
8.84872,6619
8.85347,6154
8.85823,6105
8.863,5821
8.86777,5751
8.87252,5949
8.87728,6758
8.88205,6477
8.8868,5358
8.89157,5759
8.89633,6018
8.9011,5772
8.90585,5858
8.91062,5637
8.91538,6578
8.92015,6276
8.9249,6584
8.92967,7206
8.93443,6142
8.93918,6164
8.94395,6623
8.94872,5328
8.95348,5389
8.95823,6989
8.963,6234
8.96777,5926
8.97252,5739
8.97728,5649
8.98205,5677
8.98682,5684
8.99157,6682
8.99633,5941
9.0011,5788
9.00585,6128
9.01062,5393
9.01538,6162
9.02015,5557
9.0249,6519
9.02967,7096
9.03443,5303
9.03918,5403
9.04395,6004
9.04872,6374
9.05348,6257
9.05823,5933
9.063,6229
9.06777,6135
9.07252,6346
9.07728,6251
9.08205,5936
9.08682,7030
9.09157,5299
9.09633,5728
9.1011,6049
9.10587,5630
9.11062,5752
9.11538,6450
9.12015,5742
9.1249,6431
9.12967,6519
9.13443,5512
9.1392,5873
9.14395,5659
9.14872,6721
9.15348,6562
9.15823,5927
9.163,5872
9.16777,5287
9.17253,6259
9.17728,4836
9.18205,6185
9.18682,5623
9.19157,5745
9.19633,6091
9.2011,5773
9.20587,5666
9.21062,5387
9.21538,6506
9.22015,6239
9.2249,5926
9.22967,5995
9.23443,5698
9.2392,6173
9.24395,6514
9.24872,6730
9.25348,5722
9.25825,5912
9.263,6221
9.26777,4845
9.27253,6363
9.27728,6397
9.28205,5613
9.28682,6101
9.29158,6971
9.29633,5870
9.3011,6078
9.30587,6025
9.31062,6112
9.31538,5983
9.32015,5765
9.32492,6496
9.32967,5985
9.33443,6290
9.3392,5539
9.34395,5324
9.34872,5699
9.35348,6123
9.35825,5805
9.363,6528
9.36777,5355
9.37253,5122
9.37728,5809
9.38205,5362
9.38682,5963
9.39158,6114
9.39633,6211
9.4011,6068
9.40587,5609
9.41062,5720
9.41538,5317
9.42015,5838
9.42492,5707
9.42967,5614
9.43443,6109
9.4392,5673
9.44397,5603
9.44872,5488
9.45348,5905
9.45825,6433
9.463,6085
9.46777,5240
9.47253,5953
9.4773,5666
9.48205,5949
9.48682,6361
9.49158,5147
9.49633,5975
9.5011,5852
9.50587,5541
9.51063,6363
9.51538,5543
9.52015,5679
9.52492,6313
9.52967,5659
9.53443,5376
9.5392,6149
9.54397,5092
9.54872,5209
9.55348,5038
9.55825,5766
9.563,5485
9.56777,6353
9.57253,5975
9.5773,6252
9.58205,6518
9.58682,6087
9.59158,5933
9.59633,5762
9.6011,5990
9.60587,6733
9.61063,6087
9.61538,6833
9.62015,6042
9.62492,7445
9.62968,6076
9.63443,5852
9.6392,5373
9.64397,6130
9.64872,6052
9.65348,6265
9.65825,6343
9.66302,6930
9.66777,5611
9.67253,5669
9.6773,5298
9.68205,5722
9.68682,6441
9.69158,6014
9.69635,6047
9.7011,5678
9.70587,5702
9.71063,5566
9.71538,5294
9.72015,6239
9.72492,5591
9.72968,5514
9.73443,5500
9.7392,5448
9.74397,5189
9.74872,6029
9.75348,5750
9.75825,6279
9.76302,5739
9.76777,6539
9.77253,5228
9.7773,5382
9.78207,6137
9.78682,6143
9.79158,6174
9.79635,5980
9.8011,5977
9.80587,5712
9.81063,5407
9.8154,5360
9.82015,5974
9.82492,5964
9.82968,6229
9.83443,5615
9.8392,6138
9.84397,6120
9.84873,5747
9.85348,6559
9.85825,6362
9.86302,5518
9.86777,6579
9.87253,6042
9.8773,5927
9.88207,5618
9.88682,5685
9.89158,5201
9.89635,5607
9.9011,5663
9.90587,6250
9.91063,6210
9.9154,5541
9.92015,5429
9.92492,5588
9.92968,5936
9.93443,6164
9.9392,6351
9.94397,5850
9.94873,6162
9.95348,5847
9.95825,5836
9.96302,7449
9.96778,6139
9.97253,5740
9.9773,5940
9.98207,5871
9.98682,6204
9.99158,5719
9.99635,5839
10.0011,6033
10.0059,5749
10.0106,4813
10.0154,5739
10.0202,5442
10.0249,5648
10.0297,5690
10.0345,4584
10.0392,5673
10.044,6251
10.0487,6122
10.0535,5991
10.0583,5612
10.063,5813
10.0678,5707
10.0725,6459
10.0773,6172
10.0821,6209
10.0868,5013
10.0916,5696
10.0964,4885
10.1011,5664
10.1059,5924
10.1106,5328
10.1154,6120
10.1202,5862
10.1249,5749
10.1297,5224
10.1345,5080
10.1392,5344
10.144,5614
10.1487,5831
10.1535,5222
10.1583,5800
10.163,6073
10.1678,5769
10.1725,5856
10.1773,6235
10.1821,5873
10.1868,5695
10.1916,6160
10.1964,5635
10.2011,6146
10.2059,6187
10.2106,5962
10.2154,5781
10.2202,5784
10.2249,5926
10.2297,6389
10.2345,6105
10.2392,5534
10.244,6644
10.2487,6380
10.2535,6164
10.2583,6205
10.263,6108
10.2678,6061
10.2725,6196
10.2773,5376
10.2821,5641
10.2868,6255
10.2916,6022
10.2964,5688
10.3011,4986
10.3059,5751
10.3106,6383
10.3154,5850
10.3202,5635
10.3249,5755
10.3297,5771
10.3345,5105
10.3392,5136
10.344,5648
10.3487,5292
10.3535,5785
10.3583,6201
10.363,6239
10.3678,5838
10.3726,4941
10.3773,6216
10.3821,6722
10.3868,6314
10.3916,5523
10.3964,6015
10.4011,5846
10.4059,6262
10.4106,6088
10.4154,5996
10.4202,5731
10.4249,6111
10.4297,6271
10.4345,5544
10.4392,5953
10.444,6659
10.4487,5446
10.4535,6387
10.4583,5884
10.463,6123
10.4678,5589
10.4726,6951
10.4773,6012
10.4821,5670
10.4868,6044
10.4916,5546
10.4964,5479
10.5011,5777
10.5059,5660
10.5106,5937
10.5154,4777
10.5202,5739
10.5249,4881
10.5297,5118
10.5345,5726
10.5392,5711
10.544,6325
10.5487,5695
10.5535,5337
10.5583,5769
10.563,5975
10.5678,5542
10.5726,6859
10.5773,5886
10.5821,5643
10.5868,5819
10.5916,5924
10.5964,5617
10.6011,6244
10.6059,5034
10.6106,5868
10.6154,5971
10.6202,5921
10.6249,6094
10.6297,5949
10.6345,5864
10.6392,6407
10.644,5704
10.6487,6002
10.6535,6239
10.6583,4882
10.663,5682
10.6678,5862
10.6726,5783
10.6773,5595
10.6821,6038
10.6868,5561
10.6916,5959
10.6964,5678
10.7011,5697
10.7059,5351
10.7107,5421
10.7154,5888
10.7202,6628
10.7249,5985
10.7297,5088
10.7345,5759
10.7392,6092
10.744,5511
10.7487,5328
10.7535,6067
10.7583,6304
10.763,6273
10.7678,5982
10.7726,6847
10.7773,6766
10.7821,6124
10.7868,7194
10.7916,6373
10.7964,6269
10.8011,6973
10.8059,5984
10.8107,5353
10.8154,6643
10.8202,7341
10.8249,5404
10.8297,6396
10.8345,6275
10.8392,6700
10.844,5653
10.8487,5192
10.8535,5245
10.8583,5974
10.863,5511
10.8678,5254
10.8726,6041
10.8773,6192
10.8821,6180
10.8868,5521
10.8916,5520
10.8964,5332
10.9011,5651
10.9059,5493
10.9107,5052
10.9154,5792
10.9202,5610
10.9249,4966
10.9297,5402
10.9345,5600
10.9392,5525
10.944,5619
10.9487,5531
10.9535,5969
10.9583,6315
10.963,5888
10.9678,5696
10.9726,5965
10.9773,5356
10.9821,4890
10.9868,5891
10.9916,5505
10.9964,5321
11.0011,6130
11.0059,5891
11.0107,4645
11.0154,5971
11.0202,5286
11.0249,6033
11.0297,5501
11.0345,4711
11.0392,6014
11.044,6269
11.0488,5933
11.0535,4368
11.0583,6076
11.063,5604
11.0678,5519
11.0726,6371
11.0773,5352
11.0821,4827
11.0868,6068
11.0916,5026
11.0964,5396
11.1011,5901
11.1059,5054
11.1107,6112
11.1154,5249
11.1202,5091
11.1249,5573
11.1297,5336
11.1345,5646
11.1392,5886
11.144,5679
11.1488,5313
11.1535,5050
11.1583,5853
11.163,5475
11.1678,5268
11.1726,6039
11.1773,5569
11.1821,5194
11.1868,5882
11.1916,6017
11.1964,5126
11.2011,5357
11.2059,5931
11.2107,5990
11.2154,5580
11.2202,5734
11.2249,5888
11.2297,5639
11.2345,5181
11.2392,5869
11.244,5869
11.2488,5460
11.2535,5683
11.2583,5191
11.263,5334
11.2678,5763
11.2726,5467
11.2773,5915
11.2821,6172
11.2868,6235
11.2916,6016
11.2964,5377
11.3011,4773
11.3059,5121
11.3107,5520
11.3154,5999
11.3202,5982
11.3249,6172
11.3297,5979
11.3345,5220
11.3392,5447
11.344,5026
11.3488,5147
11.3535,5544
11.3583,5931
11.363,5811
11.3678,6378
11.3726,6318
11.3773,5256
11.3821,6066
11.3869,6206
11.3916,5981
11.3964,5553
11.4011,4951
11.4059,5783
11.4107,6035
11.4154,5518
11.4202,5666
11.4249,5534
11.4297,5645
11.4345,5277
11.4392,5402
11.444,6436
11.4488,6042
11.4535,5576
11.4583,5987
11.463,5984
11.4678,6440
11.4726,5857
11.4773,6021
11.4821,4599
11.4869,5899
11.4916,5965
11.4964,5754
11.5011,6524
11.5059,6094
11.5107,5486
11.5154,5603
11.5202,6677
11.5249,6123
11.5297,5811
11.5345,6187
11.5392,5397
11.544,5706
11.5488,5146
11.5535,5372
11.5583,5850
11.563,6337
11.5678,5887
11.5726,5115
11.5773,6275
11.5821,5817
11.5869,6059
11.5916,5753
11.5964,5523
11.6011,5929
11.6059,5440
11.6107,5584
11.6154,5160
11.6202,5740
11.6249,5497
11.6297,5678
11.6345,5854
11.6392,5062
11.644,5764
11.6488,5511
11.6535,5563
11.6583,5487
11.663,6067
11.6678,6386
11.6726,6014
11.6773,6262
11.6821,5497
11.6869,5946
11.6916,5936
11.6964,6110
11.7011,5482
11.7059,5597
11.7107,6042
11.7154,5740
11.7202,5834
11.725,6468
11.7297,5840
11.7345,6201
11.7392,5438
11.744,5799
11.7488,5273
11.7535,6626
11.7583,4907
11.763,5679
11.7678,6113
11.7726,5625
11.7773,6110
11.7821,5523
11.7869,5088
11.7916,5657
11.7964,5632
11.8011,5323
11.8059,5690
11.8107,6669
11.8154,6167
11.8202,5775
11.825,5377
11.8297,5686
11.8345,4985
11.8392,5637
11.844,5304
11.8488,5181
11.8535,6124
11.8583,5402
11.863,4753
11.8678,6240
11.8726,5579
11.8773,5308
11.8821,5787
11.8869,6515
11.8916,6173
11.8964,6227
11.9011,5285
11.9059,6110
11.9107,5470
11.9154,6378
11.9202,5464
11.925,6368
11.9297,6308
11.9345,5293
11.9392,5249
11.944,5404
11.9488,6248
11.9535,5942
11.9583,6665
11.963,5129
11.9678,5447
11.9726,5299
11.9773,5912
11.9821,4985
11.9869,6096
11.9916,5416
11.9964,6243
12.0011,6420
12.0059,5739
12.0107,5684
12.0154,6715
12.0202,5371
12.025,5789
12.0297,6124
12.0345,6079
12.0392,5849
12.044,6002
12.0488,5721
12.0535,6599
12.0583,5426
12.0631,5195
12.0678,5358
12.0726,5649
12.0773,5717
12.0821,5205
12.0869,5738
12.0916,5570
12.0964,5138
12.1011,6017
12.1059,5860
12.1107,5457
12.1154,6149
12.1202,5586
12.125,5958
12.1297,5682
12.1345,6347
12.1392,5249
12.144,6241
12.1488,5171
12.1535,6053
12.1583,5515
12.1631,5201
12.1678,5070
12.1726,5519
12.1773,5279
12.1821,5592
12.1869,6571
12.1916,5932
12.1964,4969
12.2011,6034
12.2059,5475
12.2107,5927
12.2154,5284
12.2202,5613
12.225,6212
12.2297,4815
12.2345,6405
12.2392,6285
12.244,5839
12.2488,5612
12.2535,5201
12.2583,5586
12.2631,5860
12.2678,6191
12.2726,5030
12.2773,5810
12.2821,5888
12.2869,5590
12.2916,5048
12.2964,6084
12.3011,5796
12.3059,5578
12.3107,6159
12.3154,5136
12.3202,6233
12.325,5221
12.3297,5339
12.3345,5372
12.3392,5153
12.344,5162
12.3488,5565
12.3535,5466
12.3583,6295
12.3631,5689
12.3678,5549
12.3726,6342
12.3773,6065
12.3821,5755
12.3869,5904
12.3916,5291
12.3964,5845
12.4012,5738
12.4059,5954
12.4107,5107
12.4154,6075
12.4202,5353
12.425,5374
12.4297,5303
12.4345,5782
12.4392,5565
12.444,5923
12.4488,5799
12.4535,6144
12.4583,6012
12.4631,5315
12.4678,5504
12.4726,5995
12.4773,5440
12.4821,6254
12.4869,5315
12.4916,5442
12.4964,5459
12.5012,5626
12.5059,6235
12.5107,5373
12.5154,5318
12.5202,5232
12.525,5669
12.5297,5180
12.5345,5665
12.5392,5859
12.544,5456
12.5488,5463
12.5535,6705
12.5583,6099
12.5631,5347
12.5678,5276
12.5726,6108
12.5773,6477
12.5821,5916
12.5869,5537
12.5916,5747
12.5964,5066
12.6012,5872
12.6059,5443
12.6107,5042
12.6154,5441
12.6202,5822
12.625,5574
12.6297,6090
12.6345,5565
12.6392,5202
12.644,5845
12.6488,5532
12.6535,5829
12.6583,5873
12.6631,5236
12.6678,6186
12.6726,5496
12.6773,5350
12.6821,5633
12.6869,5485
12.6916,5751
12.6964,5146
12.7012,5760
12.7059,5725
12.7107,5227
12.7154,5121
12.7202,4871
12.725,5249
12.7297,5657
12.7345,6323
12.7393,5753
12.744,5941
12.7488,5471
12.7535,4946
12.7583,5283
12.7631,5622
12.7678,5945
12.7726,5291
12.7773,5772
12.7821,5367
12.7869,5546
12.7916,5238
12.7964,5976
12.8012,5697
12.8059,6340
12.8107,5565
12.8154,5518
12.8202,5317
12.825,5533
12.8297,4868
12.8345,5728
12.8393,5741
12.844,5920
12.8488,5525
12.8535,5181
12.8583,5434
12.8631,5352
12.8678,6079
12.8726,5610
12.8773,5910
12.8821,5549
12.8869,5928
12.8916,5352
12.8964,5498
12.9012,6059
12.9059,5754
12.9107,5250
12.9154,6281
12.9202,5744
12.925,5040
12.9297,6119
12.9345,4825
12.9393,5923
12.944,6503
12.9488,6500
12.9535,5006
12.9583,5947
12.9631,5744
12.9678,5709
12.9726,5403
12.9773,5767
12.9821,6179
12.9869,5332
12.9916,5174
12.9964,5309
13.0012,5943
13.0059,6422
13.0107,5526
13.0154,5449
13.0202,5217
13.025,6056
13.0297,5084
13.0345,6392
13.0393,5475
13.044,4623
13.0488,5749
13.0535,6253
13.0583,5594
13.0631,4492
13.0678,5938
13.0726,5777
13.0774,5959
13.0821,5062
13.0869,5309
13.0916,5573
13.0964,5901
13.1012,5905
13.1059,5870
13.1107,5079
13.1154,6572
13.1202,5456
13.125,5763
13.1297,6001
13.1345,5611
13.1393,5700
13.144,5389
13.1488,5362
13.1535,6070
13.1583,5607
13.1631,5234
13.1678,6141
13.1726,5339
13.1774,5851
13.1821,5373
13.1869,5339
13.1916,5381
13.1964,6018
13.2012,5104
13.2059,5357
13.2107,5818
13.2154,6651
13.2202,5696
13.225,6594
13.2297,5199
13.2345,6065
13.2393,5454
13.244,5876
13.2488,5344
13.2535,4999
13.2583,6057
13.2631,5884
13.2678,5675
13.2726,5910
13.2774,6077
13.2821,5771
13.2869,5545
13.2916,6724
13.2964,5347
13.3012,5939
13.3059,6271
13.3107,5316
13.3154,5959
13.3202,6505
13.325,5743
13.3297,6065
13.3345,5268
13.3393,5911
13.344,5665
13.3488,6030
13.3535,5564
13.3583,5741
13.3631,6356
13.3678,5620
13.3726,5276
13.3774,5859
13.3821,5776
13.3869,6043
13.3916,5120
13.3964,6419
13.4012,5334
13.4059,5774
13.4107,5907
13.4155,6449
13.4202,6364
13.425,5382
13.4297,5545
13.4345,5302
13.4393,5911
13.444,6484
13.4488,6501
13.4535,6539
13.4583,5691
13.4631,6296
13.4678,6190
13.4726,5696
13.4774,5647
13.4821,5079
13.4869,5887
13.4916,5865
13.4964,5472
13.5012,5262
13.5059,5162
13.5107,5544
13.5155,5154
13.5202,6320
13.525,6168
13.5297,6540
13.5345,5720
13.5393,5057
13.544,5265
13.5488,6398
13.5535,4995
13.5583,5626
13.5631,6454
13.5678,5701
13.5726,5385
13.5774,5234
13.5821,5214
13.5869,4870
13.5916,5804
13.5964,5210
13.6012,6029
13.6059,6212
13.6107,6135
13.6155,5882
13.6202,5034
13.625,5363
13.6297,5294
13.6345,5550
13.6393,4985
13.644,6099
13.6488,5310
13.6535,5559
13.6583,5818
13.6631,6263
13.6678,5865
13.6726,5812
13.6774,5313
13.6821,5630
13.6869,5421
13.6916,5271
13.6964,5596
13.7012,5770
13.7059,5804
13.7107,6003
13.7155,5722
13.7202,5758
13.725,4980
13.7297,5944
13.7345,4879
13.7393,5567
13.744,5596
13.7488,5175
13.7536,5526
13.7583,6248
13.7631,4965
13.7678,6634
13.7726,5725
13.7774,5504
13.7821,6086
13.7869,5735
13.7916,5968
13.7964,6023
13.8012,5718
13.8059,5436
13.8107,5220
13.8155,5448
13.8202,5837
13.825,5941
13.8297,5647
13.8345,6407
13.8393,5595
13.844,5468
13.8488,5706
13.8536,5348
13.8583,6003
13.8631,5182
13.8678,5891
13.8726,5485
13.8774,5702
13.8821,5163
13.8869,5726
13.8916,5800
13.8964,5723
13.9012,5025
13.9059,5508
13.9107,5520
13.9155,6131
13.9202,6773
13.925,5570
13.9297,5597
13.9345,5620
13.9393,5449
13.944,6152
13.9488,5469
13.9536,5482
13.9583,5647
13.9631,6608
13.9678,5732
13.9726,5742
13.9774,5245
13.9821,5423
13.9869,5796
13.9916,5340
13.9964,5538
14.0012,5805
14.0059,5341
14.0107,5691
14.0155,5517
14.0202,5799
14.025,5761
14.0297,5370
14.0345,5177
14.0393,5312
14.044,5795
14.0488,5451
14.0536,5214
14.0583,5660
14.0631,5137
14.0678,5545
14.0726,5965
14.0774,5281
14.0821,5680
14.0869,5310
14.0917,5758
14.0964,5300
14.1012,5575
14.1059,5545
14.1107,6058
14.1155,5412
14.1202,5600
14.125,6172
14.1297,4788
14.1345,5419
14.1393,7024
14.144,5450
14.1488,5631
14.1536,5552
14.1583,4412
14.1631,5008
14.1678,5730
14.1726,5442
14.1774,6038
14.1821,5489
14.1869,6184
14.1917,6431
14.1964,5615
14.2012,5349
14.2059,5004
14.2107,5807
14.2155,5991
14.2202,5495
14.225,5605
14.2297,5608
14.2345,5523
14.2393,5421
14.244,5683
14.2488,6120
14.2536,5781
14.2583,5854
14.2631,5554
14.2678,5899
14.2726,5804
14.2774,5406
14.2821,5386
14.2869,6451
14.2917,6020
14.2964,4896
14.3012,5373
14.3059,5252
14.3107,6046
14.3155,5090
14.3202,5910
14.325,4303
14.3297,5781
14.3345,5196
14.3393,6250
14.344,5894
14.3488,5515
14.3536,5525
14.3583,5780
14.3631,5174
14.3678,5632
14.3726,5877
14.3774,5920
14.3821,5750
14.3869,5945
14.3917,5831
14.3964,5541
14.4012,6076
14.4059,5335
14.4107,5625
14.4155,5469
14.4202,5396
14.425,6462
14.4298,5055
14.4345,5939
14.4393,5012
14.444,5922
14.4488,4819
14.4536,5325
14.4583,5747
14.4631,5525
14.4678,5595
14.4726,5635
14.4774,5213
14.4821,5430
14.4869,6186
14.4917,5678
14.4964,5597
14.5012,5564
14.5059,6780
14.5107,6417
14.5155,5827
14.5202,5658
14.525,5708
14.5298,5747
14.5345,5509
14.5393,5862
14.544,5457
14.5488,4829
14.5536,5759
14.5583,6168
14.5631,5555
14.5678,5386
14.5726,6775
14.5774,6061
14.5821,5361
14.5869,6215
14.5917,5603
14.5964,5821
14.6012,5656
14.6059,6086
14.6107,5950
14.6155,5096
14.6202,5642
14.625,5740
14.6298,5520
14.6345,4752
14.6393,5992
14.644,5269
14.6488,5672
14.6536,5009
14.6583,5888
