D:\MassHunter\GCMS\1\data\Victoria Marland\22FEB\220223002.D 23 Feb 22  02:50 pm
Start of data points
3.09175,677
3.09652,455
3.10127,574
3.10603,741
3.1108,552
3.11557,547
3.12032,790
3.12508,743
3.12985,1030
3.1346,843
3.13937,768
3.14413,996
3.1489,583
3.15365,766
3.15842,640
3.16318,586
3.16795,738
3.1727,662
3.17747,836
3.18223,734
3.18698,714
3.19175,653
3.19652,921
3.20128,805
3.20603,863
3.2108,747
3.21557,1003
3.22032,752
3.22508,1044
3.22985,614
3.23462,700
3.23937,834
3.24413,683
3.2489,751
3.25365,739
3.25842,781
3.26318,908
3.26795,848
3.2727,697
3.27747,849
3.28223,669
3.28698,1004
3.29175,918
3.29652,719
3.30128,733
3.30603,751
3.3108,640
3.31557,936
3.32032,682
3.32508,966
3.32985,579
3.33462,807
3.33937,848
3.34413,741
3.3489,783
3.35367,513
3.35842,734
3.36318,784
3.36795,707
3.3727,832
3.37747,759
3.38223,679
3.387,677
3.39175,816
3.39652,664
3.40128,724
3.40603,1004
3.4108,914
3.41557,1003
3.42033,761
3.42508,705
3.42985,664
3.43462,681
3.43937,902
3.44413,682
3.4489,727
3.45367,829
3.45842,673
3.46318,744
3.46795,845
3.4727,966
3.47747,690
3.48223,789
3.487,621
3.49175,784
3.49652,769
3.50128,686
3.50605,789
3.5108,855
3.51557,1087
3.52033,1462
3.52508,2398
3.52985,2028
3.53462,732
3.53938,734
3.54413,607
3.5489,523
3.55367,726
3.55842,559
3.56318,731
3.56795,937
3.57272,684
3.57747,858
3.58223,562
3.587,1019
3.59175,834
3.59652,701
3.60128,911
3.60605,726
3.6108,696
3.61557,802
3.62033,987
3.62508,787
3.62985,677
3.63462,755
3.63938,784
3.64413,802
3.6489,968
3.65367,700
3.65842,872
3.66318,665
3.66795,729
3.67272,602
3.67747,934
3.68223,963
3.687,713
3.69177,743
3.69652,602
3.70128,823
3.70605,711
3.7108,868
3.71557,936
3.72033,796
3.7251,813
3.72985,826
3.73462,916
3.73938,763
3.74413,683
3.7489,723
3.75367,694
3.75843,888
3.76318,742
3.76795,836
3.77272,721
3.77747,952
3.78223,1072
3.787,827
3.79177,921
3.79652,1008
3.80128,864
3.80605,640
3.8108,784
3.81557,819
3.82033,820
3.8251,945
3.82985,824
3.83462,1608
3.83938,717
3.84415,874
3.8489,701
3.85367,882
3.85843,788
3.86318,987
3.86795,621
3.87272,679
3.87748,792
3.88223,881
3.887,968
3.89177,974
3.89652,959
3.90128,864
3.90605,845
3.91082,883
3.91557,814
3.92033,660
3.9251,812
3.92985,845
3.93462,748
3.93938,693
3.94415,688
3.9489,710
3.95367,850
3.95843,986
3.96318,928
3.96795,639
3.97272,661
3.97748,900
3.98223,752
3.987,770
3.99177,847
3.99652,1412
4.00128,2630
4.00605,2263
4.01082,1506
4.01557,1289
4.02033,1285
4.0251,1174
4.02987,878
4.03462,865
4.03938,875
4.04415,765
4.0489,773
4.05367,926
4.05843,830
4.0632,1251
4.06795,802
4.07272,851
4.07748,954
4.08223,692
4.087,784
4.09177,970
4.09653,816
4.10128,713
4.10605,832
4.11082,780
4.11557,918
4.12033,840
4.1251,773
4.12987,886
4.13462,886
4.13938,619
4.14415,1081
4.1489,875
4.15367,1073
4.15843,902
4.1632,1049
4.16795,964
4.17272,780
4.17748,898
4.18225,973
4.187,863
4.19177,899
4.19653,930
4.20128,783
4.20605,670
4.21082,590
4.21558,1319
4.22033,2137
4.2251,1516
4.22987,816
4.23462,906
4.23938,898
4.24415,701
4.24892,675
4.25367,810
4.25843,1126
4.2632,871
4.26795,930
4.27272,912
4.27748,946
4.28225,1105
4.287,921
4.29177,897
4.29653,850
4.30128,1180
4.30605,1106
4.31082,750
4.31558,864
4.32033,684
4.3251,895
4.32987,1051
4.33462,1040
4.33938,823
4.34415,863
4.34892,1030
4.35367,1015
4.35843,1027
4.3632,720
4.36797,864
4.37272,1098
4.37748,1054
4.38225,855
4.387,970
4.39177,1031
4.39653,1026
4.4013,931
4.40605,978
4.41082,892
4.41558,794
4.42033,1006
4.4251,1039
4.42987,1000
4.43463,962
4.43938,789
4.44415,775
4.44892,799
4.45367,970
4.45843,1198
4.4632,895
4.46797,798
4.47272,1028
4.47748,889
4.48225,1146
4.487,842
4.49177,978
4.49653,765
4.5013,1168
4.50605,680
4.51082,1013
4.51558,1219
4.52035,1045
4.5251,1135
4.52987,1008
4.53463,712
4.53938,1043
4.54415,792
4.54892,1058
4.55368,1126
4.55843,1020
4.5632,1022
4.56797,1031
4.57272,981
4.57748,868
4.58225,1098
4.58702,872
4.59177,1143
4.59653,941
4.6013,845
4.60605,1104
4.61082,885
4.61558,1184
4.62035,938
4.6251,825
4.62987,1021
4.63463,928
4.63938,895
4.64415,979
4.64892,1160
4.65368,935
4.65843,947
4.6632,830
4.66797,787
4.67272,628
4.67748,1087
4.68225,1421
4.68702,932
4.69177,980
4.69653,1030
4.7013,867
4.70607,958
4.71082,1148
4.71558,1089
4.72035,808
4.7251,1089
4.72987,1142
4.73463,1053
4.7394,962
4.74415,1214
4.74892,971
4.75368,1051
4.75843,884
4.7632,1100
4.76797,1141
4.77273,1156
4.77748,1252
4.78225,1298
4.78702,1173
4.79177,1105
4.79653,1102
4.8013,1122
4.80607,1338
4.81082,1577
4.81558,1420
4.82035,1108
4.8251,866
4.82987,997
4.83463,1081
4.8394,1032
4.84415,900
4.84892,867
4.85368,1253
4.85843,1048
4.8632,1055
4.86797,1151
4.87273,1046
4.87748,1221
4.88225,976
4.88702,1088
4.89178,799
4.89653,1094
4.9013,1125
4.90607,867
4.91082,933
4.91558,997
4.92035,1170
4.92512,1467
4.92987,941
4.93463,1151
4.9394,1207
4.94415,1195
4.94892,1111
4.95368,1244
4.95845,831
4.9632,1048
4.96797,1117
4.97273,987
4.97748,1299
4.98225,943
4.98702,1206
4.99178,1312
4.99653,1004
5.0013,1046
5.00607,1452
5.01082,965
5.01558,1312
5.02035,806
5.02512,1439
5.02987,1261
5.03463,988
5.0394,1008
5.04417,1665
5.04892,1451
5.05368,1029
5.05845,1090
5.0632,1186
5.06797,960
5.07273,973
5.0775,1249
5.08225,1263
5.08702,1015
5.09178,1273
5.09653,1044
5.1013,1114
5.10607,1052
5.11083,1088
5.11558,1090
5.12035,1114
5.12512,1012
5.12987,1049
5.13463,1005
5.1394,1516
5.14417,1339
5.14892,1169
5.15368,1562
5.15845,1048
5.1632,1145
5.16797,1327
5.17273,1676
5.1775,1434
5.18225,1282
5.18702,1167
5.19178,1133
5.19653,1103
5.2013,1063
5.20607,1177
5.21083,1160
5.21558,1091
5.22035,1107
5.22512,1004
5.22988,1218
5.23463,1278
5.2394,1238
5.24417,1078
5.24892,891
5.25368,1172
5.25845,1243
5.26322,944
5.26797,1080
5.27273,1175
5.2775,1250
5.28225,1238
5.28702,1094
5.29178,1130
5.29655,915
5.3013,1141
5.30607,1114
5.31083,1345
5.31558,1023
5.32035,1466
5.32512,1398
5.32988,1391
5.33463,1472
5.3394,1341
5.34417,1474
5.34892,1481
5.35368,1443
5.35845,1132
5.36322,1214
5.36797,1064
5.37273,984
5.3775,1520
5.38227,1283
5.38702,1046
5.39178,1426
5.39655,1115
5.4013,1161
5.40607,1365
5.41083,1055
5.4156,1409
5.42035,1271
5.42512,1368
5.42988,1280
5.43463,1202
5.4394,1255
5.44417,983
5.44893,1131
5.45368,1071
5.45845,1619
5.46322,1065
5.46797,1033
5.47273,1468
5.4775,1443
5.48227,1159
5.48702,1422
5.49178,1277
5.49655,1568
5.5013,1723
5.50607,1395
5.51083,1228
5.5156,1320
5.52035,1597
5.52512,1676
5.52988,1277
5.53463,1376
5.5394,1488
5.54417,1306
5.54893,1450
5.55368,1589
5.55845,1128
5.56322,1718
5.56798,1577
5.57273,1221
5.5775,1311
5.58227,1493
5.58702,1369
5.59178,1568
5.59655,1684
5.60132,1198
5.60607,1375
5.61083,1687
5.6156,1172
5.62035,1727
5.62512,1331
5.62988,1292
5.63465,1622
5.6394,1764
5.64417,1459
5.64893,1263
5.65368,1436
5.65845,1400
5.66322,1500
5.66798,1288
5.67273,1446
5.6775,1413
5.68227,1439
5.68702,1371
5.69178,1442
5.69655,1495
5.70132,1763
5.70607,1460
5.71083,1622
5.7156,1460
5.72037,1634
5.72512,1445
5.72988,1225
5.73465,1732
5.7394,1540
5.74417,1271
5.74893,1482
5.7537,1342
5.75845,1366
5.76322,1560
5.76798,1305
5.77273,1880
5.7775,1345
5.78227,1523
5.78703,1273
5.79178,1429
5.79655,1449
5.80132,1923
5.80607,2040
5.81083,1784
5.8156,1540
5.82037,1407
5.82512,1560
5.82988,1700
5.83465,1530
5.8394,1383
5.84417,1810
5.84893,1629
5.8537,1821
5.85845,1345
5.86322,1571
5.86798,1619
5.87273,1717
5.8775,1406
5.88227,1879
5.88703,1546
5.89178,1599
5.89655,1604
5.90132,1655
5.90608,1539
5.91083,1753
5.9156,1810
5.92037,1748
5.92512,1483
5.92988,1694
5.93465,1660
5.93942,1497
5.94417,1819
5.94893,1658
5.9537,1922
5.95845,2042
5.96322,1956
5.96798,2048
5.97275,1815
5.9775,1770
5.98227,1992
5.98703,1998
5.99178,1720
5.99655,1768
6.00132,1793
6.00608,1745
6.01083,1763
6.0156,1761
6.02037,1808
6.02512,1297
6.02988,1780
6.03465,1563
6.03942,1622
6.04417,1939
6.04893,1910
6.0537,1772
6.05847,1616
6.06322,1685
6.06798,1592
6.07275,1627
6.0775,1635
6.08227,1820
6.08703,1329
6.0918,1885
6.09655,1566
6.10132,1745
6.10608,1822
6.11083,1934
6.1156,1793
6.12037,1728
6.12513,1840
6.12988,1830
6.13465,1893
6.13942,2421
6.14417,1590
6.14893,2159
6.1537,1574
6.15847,1927
6.16322,2038
6.16798,1963
6.17275,2062
6.1775,2221
6.18227,1581
6.18703,1768
6.1918,2334
6.19655,1784
6.20132,1939
6.20608,1828
6.21083,1916
6.2156,1941
6.22037,1807
6.22513,1985
6.22988,2347
6.23465,2349
6.23942,2356
6.24418,1914
6.24893,2059
6.2537,2268
6.25847,1652
6.26322,2359
6.26798,2111
6.27275,2044
6.27752,2162
6.28227,2470
6.28703,1958
6.2918,2012
6.29655,2223
6.30132,2395
6.30608,2273
6.31085,2130
6.3156,1781
6.32037,2234
6.32513,2003
6.32988,2086
6.33465,1682
6.33942,2393
6.34418,2430
6.34893,2326
6.3537,2156
6.35847,2750
6.36322,2345
6.36798,2265
6.37275,2330
6.37752,2023
6.38227,2170
6.38703,2454
6.3918,2642
6.39655,2488
6.40132,2746
6.40608,2623
6.41085,2331
6.4156,1963
6.42037,1978
6.42513,2276
6.4299,2597
6.43465,2363
6.43942,2465
6.44418,2223
6.44893,2620
6.4537,2513
6.45847,2614
6.46323,2764
6.46798,2758
6.47275,2362
6.47752,2484
6.48227,2996
6.48703,3794
6.4918,35366
6.49657,283259
6.50132,1648654
6.50608,5707551
6.51085,5767223
6.5156,1877845
6.52037,570662
6.52513,294194
6.5299,188859
6.53465,135771
6.53942,105816
6.54418,85406
6.54893,71211
6.5537,62324
6.55847,53303
6.56323,46642
6.56798,39717
6.57275,38937
6.57752,32661
6.58228,30117
6.58703,26645
6.5918,26376
6.59657,24315
6.60132,22872
6.60608,21497
6.61085,20202
6.61562,17316
6.62037,17905
6.62513,16370
6.6299,16954
6.63465,15055
6.63942,13699
6.64418,14043
6.64895,13108
6.6537,11672
6.65847,13411
6.66323,12699
6.66798,10974
6.67275,10399
6.67752,11202
6.68228,10669
6.68703,9926
6.6918,9991
6.69657,8113
6.70132,8837
6.70608,8669
6.71085,8855
6.71562,7711
6.72037,8022
6.72513,8089
6.7299,6804
6.73465,8289
6.73942,8625
6.74418,6962
6.74895,8263
6.7537,6690
6.75847,6136
6.76323,7597
6.768,6850
6.77275,6557
6.77752,7192
6.78228,7418
6.78703,7399
6.7918,8157
6.79657,6192
6.80133,6983
6.80608,6461
6.81085,5969
6.81562,5838
6.82037,5532
6.82513,6087
6.8299,6071
6.83467,6242
6.83942,5861
6.84418,5415
6.84895,5313
6.8537,6015
6.85847,5743
6.86323,6470
6.868,7208
6.87275,7346
6.87752,5932
6.88228,5301
6.88703,5751
6.8918,5754
6.89657,5838
6.90133,5297
6.90608,5668
6.91085,5204
6.91562,5717
6.92038,5099
6.92513,6499
6.9299,5762
6.93467,5270
6.93942,5246
6.94418,5574
6.94895,5811
6.95372,6772
6.95847,5619
6.96323,5741
6.968,5748
6.97275,5368
6.97752,6079
6.98228,5826
6.98705,5012
6.9918,5809
6.99657,5426
7.00133,5094
7.00608,5321
7.01085,6079
7.01562,5744
7.02038,6484
7.02513,7546
7.0299,6598
7.03467,6109
7.03942,5895
7.04418,5158
7.04895,5591
7.05372,6239
7.05847,5537
7.06323,6172
7.068,5694
7.07275,5842
7.07752,5975
7.08228,6106
7.08705,6318
7.0918,5749
7.09657,5807
7.10133,6019
7.1061,5497
7.11085,5289
7.11562,6028
7.12038,5167
7.12513,6144
7.1299,5070
7.13467,5911
7.13943,5938
7.14418,5879
7.14895,5348
7.15372,6038
7.15847,5959
7.16323,5725
7.168,6451
7.17277,6144
7.17752,5407
7.18228,5585
7.18705,6020
7.1918,5955
7.19657,5594
7.20133,5587
7.2061,6348
7.21085,5810
7.21562,5777
7.22038,5224
7.22513,5906
7.2299,6287
7.23467,5607
7.23943,5471
7.24418,6916
7.24895,6265
7.25372,6222
7.25847,5715
7.26323,5313
7.268,5476
7.27277,5084
7.27752,6240
7.28228,5553
7.28705,6914
7.29182,6662
7.29657,5949
7.30133,5899
7.3061,5865
7.31085,6464
7.31562,6065
7.32038,6257
7.32515,6082
7.3299,5961
7.33467,5460
7.33943,5669
7.34418,6658
7.34895,6123
7.35372,5752
7.35848,6015
7.36323,6296
7.368,5983
7.37277,5393
7.37752,5523
7.38228,6162
7.38705,5631
7.39182,5985
7.39657,6392
7.40133,6226
7.4061,6026
7.41085,6356
7.41562,5636
7.42038,5244
7.42515,6942
7.4299,6977
7.43467,6720
7.43943,6805
7.4442,6898
7.44895,6303
7.45372,5337
7.45848,5928
7.46323,6076
7.468,6182
7.47277,6512
7.47753,5442
7.48228,6808
7.48705,5739
7.49182,6132
7.49657,6969
7.50133,6431
7.5061,6402
7.51087,6155
7.51562,5766
7.52038,6909
7.52515,5656
7.5299,6103
7.53467,6419
7.53943,6141
7.5442,7118
7.54895,6512
7.55372,5606
7.55848,5803
7.56323,6348
7.568,5333
7.57277,5502
7.57753,5718
7.58228,5987
7.58705,6077
7.59182,6019
7.59657,5868
7.60133,5625
7.6061,5832
7.61087,6589
7.61562,5899
7.62038,5985
7.62515,6420
7.62992,5426
7.63467,5117
7.63943,5340
7.6442,5735
7.64895,5155
7.65372,6098
7.65848,6348
7.66325,6013
7.668,6388
7.67277,6334
7.67753,6700
7.68228,5648
7.68705,5525
7.69182,5947
7.69658,5741
7.70133,6648
7.7061,6336
7.71087,6549
7.71562,6592
7.72038,6032
7.72515,6022
7.72992,6450
7.73467,6435
7.73943,5925
7.7442,5862
7.74895,6979
7.75372,6646
7.75848,5630
7.76325,5333
7.768,5591
7.77277,6453
7.77753,5522
7.7823,5364
7.78705,6128
7.79182,5809
7.79658,6009
7.80133,6110
7.8061,5581
7.81087,5739
7.81563,6431
7.82038,5805
7.82515,6089
7.82992,6239
7.83467,6577
7.83943,5919
7.8442,5867
7.84897,5609
7.85372,5819
7.85848,6308
7.86325,6513
7.868,6861
7.87277,6435
7.87753,5760
7.8823,5820
7.88705,6299
7.89182,6614
7.89658,6239
7.90133,5693
7.9061,6503
7.91087,6347
7.91563,6084
7.92038,6784
7.92515,6309
7.92992,6288
7.93467,5591
7.93943,6603
7.9442,6814
7.94897,6190
7.95372,5936
7.95848,5830
7.96325,5693
7.96802,5636
7.97277,6416
7.97753,5802
7.9823,5782
7.98705,5058
7.99182,6281
7.99658,6160
8.00135,6909
8.0061,5743
8.01087,6249
8.01563,5988
8.02038,6444
8.02515,6335
8.02992,5899
8.03468,6120
8.03943,6537
8.0442,5196
8.04897,5492
8.05372,6156
8.05848,5634
8.06325,6790
8.06802,5535
8.07277,5925
8.07753,5822
8.0823,5865
8.08705,5745
8.09182,5817
8.09658,6183
8.10135,6128
8.1061,6156
8.11087,6474
8.11563,5796
8.1204,6244
8.12515,6299
8.12992,6406
8.13468,6140
8.13943,5006
8.1442,6219
8.14897,6657
8.15373,6241
8.15848,6347
8.16325,5419
8.16802,5722
8.17277,5200
8.17753,5138
8.1823,5906
8.18707,6628
8.19182,5613
8.19658,6660
8.20135,7277
8.2061,6041
8.21087,6765
8.21563,5724
8.2204,6426
8.22515,5858
8.22992,5565
8.23468,6354
8.23943,5800
8.2442,6043
8.24897,5797
8.25373,6690
8.25848,6656
8.26325,6175
8.26802,5591
8.27277,5838
8.27753,6627
8.2823,6029
8.28707,6450
8.29182,6201
8.29658,5902
8.30135,6381
8.30612,6217
8.31087,6838
8.31563,6057
8.3204,6244
8.32515,6214
8.32992,6410
8.33468,5932
8.33945,5873
8.3442,6748
8.34897,6196
8.35373,5933
8.35848,6967
8.36325,6409
8.36802,6816
8.37278,6480
8.37753,6409
8.3823,6043
8.38707,6587
8.39182,5813
8.39658,5344
8.40135,6080
8.40612,6827
8.41087,5994
8.41563,6484
8.4204,6864
8.42515,6553
8.42992,5600
8.43468,6429
8.43945,6433
8.4442,6215
8.44897,6423
8.45373,6226
8.45848,5330
8.46325,5781
8.46802,6392
8.47278,7218
8.47753,5876
8.4823,6507
8.48707,6349
8.49183,6738
8.49658,5720
8.50135,6622
8.50612,5288
8.51087,6378
8.51563,6151
8.5204,6141
8.52517,6225
8.52992,5941
8.53468,5962
8.53945,6232
8.5442,6394
8.54897,5455
8.55373,5958
8.5585,6248
8.56325,6929
8.56802,7067
8.57278,6247
8.57753,5829
8.5823,6354
8.58707,6863
8.59183,5982
8.59658,6930
8.60135,6190
8.60612,6095
8.61087,6166
8.61563,6623
8.6204,5905
8.62517,5712
8.62992,6134
8.63468,6159
8.63945,6497
8.64422,5445
8.64897,5726
8.65373,6461
8.6585,6238
8.66325,5895
8.66802,6191
8.67278,6478
8.67755,6644
8.6823,5426
8.68707,5986
8.69183,6322
8.69658,6194
8.70135,5176
8.70612,6474
8.71088,7296
8.71563,5936
8.7204,6328
8.72517,6498
8.72992,5483
8.73468,6024
8.73945,5799
8.74422,6702
8.74897,6039
8.75373,5850
8.7585,6134
8.76325,6414
8.76802,6569
8.77278,6857
8.77755,5743
8.7823,5855
8.78707,5999
8.79183,5747
8.79658,6562
8.80135,5503
8.80612,5966
8.81088,5567
8.81563,6152
8.8204,5713
8.82517,6553
8.82993,5872
8.83468,6298
8.83945,6444
8.84422,6502
8.84897,6424
8.85373,6095
8.8585,6059
8.86327,5845
8.86802,5850
8.87278,6385
8.87755,6179
8.8823,5598
8.88707,6457
8.89183,6267
8.8966,6218
8.90135,6028
8.90612,5696
8.91088,6416
8.91563,5980
8.9204,5339
8.92517,6092
8.92993,6492
8.93468,6650
8.93945,5120
8.94422,5809
8.94897,6066
8.95373,6145
8.9585,6769
8.96327,6768
8.96802,6349
8.97278,5771
8.97755,6447
8.98232,5840
8.98707,6040
8.99183,6194
8.9966,6019
9.00135,6470
9.00612,5861
9.01088,6623
9.01565,5685
9.0204,5701
9.02517,6196
9.02993,6320
9.03468,5665
9.03945,6220
9.04422,6758
9.04898,5527
9.05373,6342
9.0585,6716
9.06327,5806
9.06802,6611
9.07278,6139
9.07755,5943
9.08232,5964
9.08707,5248
9.09183,5400
9.0966,5907
9.10135,5922
9.10612,6282
9.11088,6035
9.11565,6155
9.1204,6346
9.12517,5330
9.12993,5895
9.13468,5728
9.13945,5589
9.14422,5910
9.14898,6940
9.15373,5139
9.1585,6255
9.16327,7622
9.16803,6308
9.17278,5469
9.17755,6197
9.18232,6213
9.18707,6392
9.19183,6021
9.1966,5751
9.20137,5915
9.20612,6752
9.21088,5805
9.21565,6309
9.2204,6466
9.22517,6803
9.22993,5731
9.2347,6800
9.23945,6305
9.24422,5653
9.24898,6228
9.25373,6074
9.2585,6252
9.26327,6035
9.26803,6083
9.27278,6056
9.27755,6435
9.28232,6655
9.28707,6468
9.29183,7188
9.2966,5713
9.30137,5332
9.30612,6219
9.31088,6391
9.31565,6089
9.3204,5404
9.32517,6404
9.32993,5580
9.3347,6235
9.33945,5590
9.34422,6361
9.34898,5807
9.35375,6492
9.3585,6139
9.36327,5894
9.36803,6151
9.37278,6283
9.37755,6042
9.38232,6206
9.38708,5733
9.39183,5879
9.3966,6631
9.40137,5793
9.40612,5886
9.41088,6680
9.41565,6188
9.42042,6547
9.42517,6287
9.42993,6562
9.4347,6382
9.43945,6355
9.44422,5932
9.44898,6402
9.45375,5564
9.4585,6274
9.46327,6459
9.46803,6357
9.47278,6453
9.47755,6081
9.48232,6709
9.48708,5286
9.49183,6511
9.4966,5362
9.50137,4761
9.50613,5696
9.51088,5985
9.51565,5920
9.52042,5910
9.52517,5833
9.52993,5951
9.5347,5964
9.53947,6287
9.54422,5150
9.54898,6036
9.55375,6209
9.5585,5483
9.56327,5942
9.56803,6953
9.5728,6208
9.57755,5800
9.58232,6301
9.58708,6547
9.59183,5906
9.5966,6137
9.60137,5952
9.60613,6547
9.61088,5948
9.61565,6079
9.62042,5563
9.62517,6569
9.62993,6420
9.6347,6674
9.63947,5874
9.64422,5827
9.64898,5606
9.65375,6423
9.6585,5699
9.66327,6352
9.66803,6351
9.6728,6001
9.67755,6188
9.68232,5883
9.68708,6525
9.69185,6107
9.6966,6088
9.70137,6447
9.70613,6402
9.71088,5845
9.71565,6047
9.72042,4798
9.72518,5032
9.72993,5919
9.7347,7119
9.73947,5593
9.74422,4949
9.74898,6345
9.75375,6788
9.75852,6488
9.76327,6835
9.76803,6217
9.7728,6429
9.77755,6586
9.78232,6619
9.78708,5749
9.79185,5647
9.7966,5580
9.80137,6494
9.80613,6772
9.81088,5243
9.81565,6556
9.82042,6481
9.82518,6162
9.82993,6599
9.8347,6276
9.83947,6438
9.84423,6421
9.84898,6281
9.85375,6670
9.85852,6428
9.86327,5711
9.86803,5188
9.8728,6099
9.87757,6026
9.88232,5790
9.88708,6538
9.89185,5793
9.8966,6518
9.90137,5991
9.90613,5860
9.9109,5930
9.91565,5933
9.92042,6542
9.92518,5942
9.92993,6191
9.9347,6254
9.93947,6424
9.94423,5646
9.94898,6565
9.95375,5889
9.95852,5195
9.96327,6983
9.96803,5956
9.9728,6229
9.97757,6673
9.98232,6101
9.98708,5642
9.99185,5993
9.9966,5833
10.0014,6051
10.0061,5971
10.0109,5061
10.0157,5815
10.0204,5839
10.0252,5541
10.03,6332
10.0347,5788
10.0395,5923
10.0442,5770
10.049,5202
10.0538,4953
10.0585,5777
10.0633,6035
10.068,4923
10.0728,6336
10.0776,5904
10.0823,6004
10.0871,7020
10.0919,6341
10.0966,6056
10.1014,6247
10.1061,6576
10.1109,5704
10.1157,6197
10.1204,5948
10.1252,6259
10.13,5603
10.1347,6643
10.1395,6058
10.1442,5882
10.149,5656
10.1538,5449
10.1585,5721
10.1633,5830
10.168,6754
10.1728,6430
10.1776,7323
10.1823,11570
10.1871,20775
10.1919,34340
10.1966,52752
10.2014,73129
10.2061,105125
10.2109,139836
10.2157,178442
10.2204,213985
10.2252,248339
10.23,267022
10.2347,255532
10.2395,215775
10.2442,173309
10.249,131212
10.2538,102207
10.2585,77526
10.2633,62241
10.268,49100
10.2728,42542
10.2776,37330
10.2823,31791
10.2871,29621
10.2919,25754
10.2966,25121
10.3014,21349
10.3061,19853
10.3109,17463
10.3157,17915
10.3204,15324
10.3252,15077
10.33,13967
10.3347,13444
10.3395,12825
10.3442,12379
10.349,11934
10.3538,10679
10.3585,12272
10.3633,11518
10.3681,10704
10.3728,10088
10.3776,9728
10.3823,10460
10.3871,8477
10.3919,10068
10.3966,10436
10.4014,8787
10.4061,9032
10.4109,9778
10.4157,10317
10.4204,8979
10.4252,8837
10.43,8805
10.4347,8262
10.4395,8166
10.4442,8362
10.449,8045
10.4538,7856
10.4585,8004
10.4633,8714
10.4681,8648
10.4728,8342
10.4776,8162
10.4823,8372
10.4871,7055
10.4919,7134
10.4966,7212
10.5014,7304
10.5061,7243
10.5109,6856
10.5157,7067
10.5204,7287
10.5252,6992
10.53,7497
10.5347,7963
10.5395,7276
10.5442,6306
10.549,6489
10.5538,7458
10.5585,7174
10.5633,6885
10.5681,7629
10.5728,7258
10.5776,7059
10.5823,6691
10.5871,6748
10.5919,7097
10.5966,7392
10.6014,7150
10.6061,6657
10.6109,7119
10.6157,6777
10.6204,7039
10.6252,7410
10.63,6297
10.6347,7583
10.6395,7206
10.6442,6863
10.649,7479
10.6538,7574
10.6585,6882
10.6633,7928
10.6681,6124
10.6728,7459
10.6776,7308
10.6823,7033
10.6871,6824
10.6919,7348
10.6966,6576
10.7014,6557
10.7062,6734
10.7109,6258
10.7157,6797
10.7204,6756
10.7252,6742
10.73,6755
10.7347,7105
10.7395,6121
10.7442,7214
10.749,6877
10.7538,6474
10.7585,6449
10.7633,6931
10.7681,7111
10.7728,7270
10.7776,7039
10.7823,7496
10.7871,7367
10.7919,7048
10.7966,7423
10.8014,6773
10.8062,6196
10.8109,7207
10.8157,6892
10.8204,6279
10.8252,5911
10.83,6846
10.8347,5793
10.8395,5777
10.8442,6003
10.849,6727
10.8538,6991
10.8585,6284
10.8633,7441
10.8681,7188
10.8728,6896
10.8776,6131
10.8823,5830
10.8871,6972
10.8919,5935
10.8966,6306
10.9014,6450
10.9062,7282
10.9109,5007
10.9157,6729
10.9204,6529
10.9252,6493
10.93,6423
10.9347,6802
10.9395,7050
10.9442,7062
10.949,7044
10.9538,6523
10.9585,6498
10.9633,6233
10.9681,5809
10.9728,5727
10.9776,7364
10.9823,6869
10.9871,6595
10.9919,6933
10.9966,7375
11.0014,6839
11.0062,6338
11.0109,6148
11.0157,6455
11.0204,7223
11.0252,5656
11.03,6223
11.0347,6685
11.0395,6379
11.0443,6250
11.049,5928
11.0538,6390
11.0585,5859
11.0633,7040
11.0681,6251
11.0728,6108
11.0776,6893
11.0823,7061
11.0871,6776
11.0919,6665
11.0966,6156
11.1014,6860
11.1062,7208
11.1109,5826
11.1157,5663
11.1204,5812
11.1252,5539
11.13,5284
11.1347,5999
11.1395,5970
11.1443,6715
11.149,7082
11.1538,6384
11.1585,6084
11.1633,6566
11.1681,5419
11.1728,6034
11.1776,6242
11.1823,5491
11.1871,6544
11.1919,5854
11.1966,6088
11.2014,6543
11.2062,6426
11.2109,6219
11.2157,6157
11.2204,6059
11.2252,6878
11.23,7031
11.2347,6256
11.2395,6964
11.2443,6814
11.249,6217
11.2538,6070
11.2585,6552
11.2633,6795
11.2681,7148
11.2728,6890
11.2776,6693
11.2823,6610
11.2871,5755
11.2919,5622
11.2966,6746
11.3014,6107
11.3062,6590
11.3109,6229
11.3157,6655
11.3204,6391
11.3252,7040
11.33,6142
11.3347,6530
11.3395,6243
11.3443,6024
11.349,6527
11.3538,7286
11.3585,6928
11.3633,6320
11.3681,6873
11.3728,5948
11.3776,5994
11.3824,6363
11.3871,6925
11.3919,5755
11.3966,6065
11.4014,6206
11.4062,6555
11.4109,6010
11.4157,5848
11.4204,7041
11.4252,5577
11.43,6386
11.4347,6900
11.4395,5388
11.4443,5912
11.449,6350
11.4538,6255
11.4585,6583
11.4633,6437
11.4681,5700
11.4728,6435
11.4776,6983
11.4824,6404
11.4871,5881
11.4919,6290
11.4966,5722
11.5014,5963
11.5062,6188
11.5109,6518
11.5157,6839
11.5204,7182
11.5252,7504
11.53,6028
11.5347,6366
11.5395,7522
11.5443,5428
11.549,6316
11.5538,6875
11.5585,5856
11.5633,5657
11.5681,6430
11.5728,6809
11.5776,5714
11.5824,6602
11.5871,6115
11.5919,5840
11.5966,6117
11.6014,5778
11.6062,5982
11.6109,5556
11.6157,6177
11.6204,7078
11.6252,6205
11.63,6445
11.6347,6391
11.6395,5352
11.6443,6707
11.649,5916
11.6538,7344
11.6585,5855
11.6633,7272
11.6681,6148
11.6728,6333
11.6776,6434
11.6824,6673
11.6871,6484
11.6919,6900
11.6966,6441
11.7014,5510
11.7062,6473
11.7109,5681
11.7157,6371
11.7204,5630
11.7252,6569
11.73,6136
11.7347,7098
11.7395,6804
11.7443,5755
11.749,5666
11.7538,5641
11.7585,6728
11.7633,6000
11.7681,5523
11.7728,6484
11.7776,6199
11.7824,6282
11.7871,5682
11.7919,7467
11.7966,6450
11.8014,6508
11.8062,6823
11.8109,5715
11.8157,5629
11.8205,6343
11.8252,7135
11.83,6522
11.8347,7096
11.8395,6099
11.8443,7066
11.849,5826
11.8538,6629
11.8585,6116
11.8633,6848
11.8681,6442
11.8728,5800
11.8776,6024
11.8824,5994
11.8871,5872
11.8919,6834
11.8966,5377
11.9014,6889
11.9062,6294
11.9109,6448
11.9157,5779
11.9205,6203
11.9252,5448
11.93,5829
11.9347,6013
11.9395,6449
11.9443,6738
11.949,6411
11.9538,5926
11.9585,6280
11.9633,5954
11.9681,6300
11.9728,6392
11.9776,5471
11.9824,5630
11.9871,6081
11.9919,6855
11.9966,5749
12.0014,6065
12.0062,6451
12.0109,6200
12.0157,6695
12.0205,6567
12.0252,5829
12.03,5904
12.0347,6197
12.0395,5753
12.0443,6700
12.049,5632
12.0538,5622
12.0585,6248
12.0633,6027
12.0681,6714
12.0728,6432
12.0776,5816
12.0824,6327
12.0871,6048
12.0919,6831
12.0966,6632
12.1014,5852
12.1062,5764
12.1109,6769
12.1157,6476
12.1205,5817
12.1252,5568
12.13,5871
12.1347,5776
12.1395,5664
12.1443,5804
12.149,6217
12.1538,5648
12.1586,6455
12.1633,5859
12.1681,5476
12.1728,5605
12.1776,6226
12.1824,6463
12.1871,6850
12.1919,6129
12.1966,5773
12.2014,6058
12.2062,6795
12.2109,6102
12.2157,6441
12.2205,6277
12.2252,6315
12.23,6354
12.2347,6633
12.2395,5896
12.2443,6572
12.249,5332
12.2538,6420
12.2586,6539
12.2633,6766
12.2681,6063
12.2728,5951
12.2776,5065
12.2824,6407
12.2871,6518
12.2919,6435
12.2966,6562
12.3014,5981
12.3062,5969
12.3109,6516
12.3157,5839
12.3205,5645
12.3252,6280
12.33,5919
12.3347,6319
12.3395,5530
12.3443,5662
12.349,6225
12.3538,6972
12.3586,5994
12.3633,5799
12.3681,6301
12.3728,5061
12.3776,6936
12.3824,6613
12.3871,6396
12.3919,6013
12.3966,6584
12.4014,5925
12.4062,5543
12.4109,6019
12.4157,5024
12.4205,6426
12.4252,6262
12.43,5409
12.4347,6081
12.4395,5951
12.4443,5868
12.449,5877
12.4538,6611
12.4586,5945
12.4633,6167
12.4681,5581
12.4728,5784
12.4776,6191
12.4824,5862
12.4871,6581
12.4919,6478
12.4967,6161
12.5014,6146
12.5062,5722
12.5109,5626
12.5157,7030
12.5205,6037
12.5252,6633
12.53,6448
12.5347,5271
12.5395,5847
12.5443,6608
12.549,5860
12.5538,6728
12.5586,5860
12.5633,5652
12.5681,5752
12.5728,6417
12.5776,5378
12.5824,7212
12.5871,6707
12.5919,6678
12.5967,6277
12.6014,5993
12.6062,6670
12.6109,6123
12.6157,6421
12.6205,5973
12.6252,6341
12.63,6165
12.6347,6034
12.6395,6684
12.6443,6208
12.649,6679
12.6538,6320
12.6586,6883
12.6633,6401
12.6681,6001
12.6728,6884
12.6776,6481
12.6824,5675
12.6871,6013
12.6919,5823
12.6967,6020
12.7014,5775
12.7062,5108
12.7109,5855
12.7157,6252
12.7205,5725
12.7252,6108
12.73,6030
12.7347,5276
12.7395,5915
12.7443,7166
12.749,5879
12.7538,5768
12.7586,6333
12.7633,6352
12.7681,6303
12.7728,5959
12.7776,6610
12.7824,5865
12.7871,6323
12.7919,5260
12.7967,5929
12.8014,5916
12.8062,6369
12.8109,6869
12.8157,6358
12.8205,6170
12.8252,7197
12.83,5961
12.8348,6472
12.8395,6395
12.8443,6300
12.849,6241
12.8538,6398
12.8586,6004
12.8633,6027
12.8681,6694
12.8728,5621
12.8776,6670
12.8824,5801
12.8871,6598
12.8919,6081
12.8967,5973
12.9014,5840
12.9062,6499
12.9109,6076
12.9157,6085
12.9205,6340
12.9252,6235
12.93,6129
12.9348,5977
12.9395,5654
12.9443,6567
12.949,5746
12.9538,6261
12.9586,6162
12.9633,5556
12.9681,5868
12.9728,6589
12.9776,6707
12.9824,6058
12.9871,5494
12.9919,6247
12.9967,5528
13.0014,5752
13.0062,5850
13.0109,5945
13.0157,6130
13.0205,6296
13.0252,5922
13.03,5881
13.0348,6866
13.0395,5287
13.0443,5816
13.049,6155
13.0538,6227
13.0586,7461
13.0633,6166
13.0681,6072
13.0728,5245
13.0776,5680
13.0824,6163
13.0871,6230
13.0919,6713
13.0967,6170
13.1014,5365
13.1062,6229
13.1109,6222
13.1157,6689
13.1205,6547
13.1252,6393
13.13,6552
13.1348,6011
13.1395,6086
13.1443,6180
13.149,5767
13.1538,5736
13.1586,5939
13.1633,6187
13.1681,6521
13.1729,5895
13.1776,6364
13.1824,6090
13.1871,6210
13.1919,6083
13.1967,5904
13.2014,5507
13.2062,6303
13.2109,6207
13.2157,6088
13.2205,6079
13.2252,6298
13.23,6639
13.2348,6163
13.2395,5986
13.2443,5865
13.249,6900
13.2538,5554
13.2586,5820
13.2633,6062
13.2681,6821
13.2729,6468
13.2776,6168
13.2824,6302
13.2871,6240
13.2919,5504
13.2967,5923
13.3014,5612
13.3062,5724
13.3109,5530
13.3157,6766
13.3205,6903
13.3252,6646
13.33,5899
13.3348,6452
13.3395,6711
13.3443,6205
13.349,6045
13.3538,6436
13.3586,6239
13.3633,5852
13.3681,5661
13.3729,6359
13.3776,6316
13.3824,6511
13.3871,6009
13.3919,6305
13.3967,6000
13.4014,5775
13.4062,6552
13.4109,6320
13.4157,5635
13.4205,5990
13.4252,6340
13.43,6517
13.4348,5883
13.4395,6341
13.4443,6201
13.449,6310
13.4538,6007
13.4586,6104
13.4633,5964
13.4681,6010
13.4729,5120
13.4776,5858
13.4824,5971
13.4871,6460
13.4919,6294
13.4967,6309
13.5014,6366
13.5062,5810
13.511,5908
13.5157,5895
13.5205,6302
13.5252,6401
13.53,5523
13.5348,6010
13.5395,6372
13.5443,5184
13.549,6117
13.5538,5923
13.5586,5664
13.5633,5643
13.5681,5166
13.5729,5661
13.5776,5759
13.5824,5872
13.5871,5782
13.5919,5594
13.5967,5270
13.6014,6357
13.6062,5806
13.611,6196
13.6157,6344
13.6205,6271
13.6252,5824
13.63,6457
13.6348,6242
13.6395,6220
13.6443,6259
13.649,6199
13.6538,6590
13.6586,5843
13.6633,5752
13.6681,5777
13.6729,6178
13.6776,5830
13.6824,5702
13.6871,5369
13.6919,5803
13.6967,6544
13.7014,6451
13.7062,6034
13.711,5558
13.7157,6070
13.7205,5766
13.7252,5973
13.73,5959
13.7348,5809
13.7395,6439
13.7443,6647
13.749,5708
13.7538,6281
13.7586,6609
13.7633,5414
13.7681,5628
13.7729,5588
13.7776,5660
13.7824,6112
13.7871,5811
13.7919,6120
13.7967,5021
13.8014,5514
13.8062,5297
13.811,6703
13.8157,5686
13.8205,6260
13.8252,5965
13.83,6264
13.8348,5969
13.8395,6717
13.8443,5987
13.8491,6640
13.8538,6059
13.8586,6151
13.8633,6220
13.8681,5730
13.8729,6443
13.8776,6437
13.8824,6716
13.8871,5377
13.8919,6025
13.8967,6280
13.9014,5560
13.9062,6072
13.911,6284
13.9157,5574
13.9205,5964
13.9252,5265
13.93,5656
13.9348,5050
13.9395,5825
13.9443,6598
13.9491,6179
13.9538,6242
13.9586,5689
13.9633,5490
13.9681,5455
13.9729,5971
13.9776,6201
13.9824,5917
13.9871,6171
13.9919,5980
13.9967,5518
14.0014,6594
14.0062,5872
14.011,6874
14.0157,5922
14.0205,5397
14.0252,6238
14.03,6805
14.0348,6869
14.0395,6519
14.0443,6476
14.0491,5936
14.0538,5364
14.0586,5948
14.0633,7341
14.0681,6586
14.0729,6133
14.0776,6207
14.0824,5889
14.0871,6051
14.0919,5977
14.0967,6467
14.1014,6002
14.1062,6198
14.111,6072
14.1157,6207
14.1205,6740
14.1252,6094
14.13,5742
14.1348,6149
14.1395,5598
14.1443,6591
14.1491,5903
14.1538,6329
14.1586,5981
14.1633,6671
14.1681,5907
14.1729,6763
14.1776,5602
14.1824,5954
14.1872,6620
14.1919,5743
14.1967,6274
14.2014,6229
14.2062,6089
14.211,5113
14.2157,6035
14.2205,6432
14.2252,5810
14.23,5829
14.2348,5913
14.2395,6044
14.2443,5333
14.2491,6635
14.2538,6748
14.2586,5944
14.2633,6305
14.2681,6232
14.2729,6627
14.2776,6717
14.2824,5674
14.2872,6378
14.2919,6371
14.2967,6540
14.3014,6380
14.3062,5618
14.311,5971
14.3157,6435
14.3205,5857
14.3252,6102
14.33,6268
14.3348,5020
14.3395,6738
14.3443,5915
14.3491,7247
14.3538,5825
14.3586,6326
14.3633,6871
14.3681,6453
14.3729,6409
14.3776,5555
14.3824,5734
14.3872,6314
14.3919,5818
14.3967,6336
14.4014,6478
14.4062,6051
14.411,6435
14.4157,6382
14.4205,6356
14.4252,6197
14.43,6388
14.4348,6238
14.4395,5725
14.4443,6345
14.4491,6418
14.4538,6467
14.4586,6019
14.4633,6072
14.4681,5654
14.4729,6509
14.4776,5291
14.4824,6076
14.4872,5765
14.4919,6467
14.4967,6695
14.5014,6907
14.5062,5531
14.511,6570
14.5157,6520
14.5205,5735
14.5253,6016
14.53,5948
14.5348,5792
14.5395,5471
14.5443,5740
14.5491,5808
14.5538,5697
14.5586,6632
14.5633,5611
14.5681,6146
14.5729,5725
14.5776,6428
14.5824,5837
14.5872,6717
14.5919,6604
14.5967,6312
14.6014,5883
14.6062,5884
14.611,6013
14.6157,6002
14.6205,6432
14.6253,5409
14.63,5812
14.6348,6254
14.6395,6304
14.6443,6418
14.6491,5796
14.6538,6194
14.6586,5777
