D:\MassHunter\GCMS\1\data\Victoria Marland\22FEB\220223028.D 23 Feb 22  11:26 pm
Start of data points
3.09175,827
3.0965,876
3.10127,748
3.10603,740
3.1108,623
3.11555,497
3.12032,839
3.12508,970
3.12983,915
3.1346,762
3.13937,745
3.14413,514
3.14888,816
3.15365,741
3.15842,1141
3.16318,939
3.16793,961
3.1727,867
3.17747,846
3.18222,1075
3.18698,733
3.19175,881
3.19652,1257
3.20127,847
3.20603,1076
3.2108,1090
3.21555,1318
3.22032,929
3.22508,797
3.22985,809
3.2346,993
3.23937,860
3.24413,823
3.24888,811
3.25365,820
3.25842,580
3.26318,846
3.26793,792
3.2727,1098
3.27747,705
3.28222,621
3.28698,596
3.29175,954
3.29652,943
3.30127,845
3.30603,733
3.3108,857
3.31555,970
3.32032,1144
3.32508,719
3.32985,895
3.3346,875
3.33937,1037
3.34413,875
3.3489,864
3.35365,772
3.35842,616
3.36318,864
3.36793,787
3.3727,1000
3.37747,831
3.38223,777
3.38698,842
3.39175,680
3.39652,641
3.40127,607
3.40603,614
3.4108,910
3.41557,762
3.42032,778
3.42508,780
3.42985,659
3.4346,672
3.43937,637
3.44413,871
3.4489,712
3.45365,755
3.45842,783
3.46318,508
3.46793,676
3.4727,617
3.47747,828
3.48223,713
3.48698,808
3.49175,796
3.49652,695
3.50127,702
3.50603,664
3.5108,528
3.51557,973
3.52032,1443
3.52508,1312
3.52985,1151
3.53462,969
3.53937,746
3.54413,908
3.5489,865
3.55365,833
3.55842,1103
3.56318,684
3.56795,713
3.5727,762
3.57747,683
3.58223,910
3.58698,686
3.59175,988
3.59652,899
3.60128,769
3.60603,551
3.6108,786
3.61557,582
3.62032,873
3.62508,850
3.62985,822
3.63462,648
3.63937,662
3.64413,706
3.6489,1188
3.65365,1379
3.65842,1137
3.66318,605
3.66795,711
3.6727,624
3.67747,830
3.68223,869
3.687,628
3.69175,996
3.69652,892
3.70128,749
3.70603,784
3.7108,655
3.71557,808
3.72033,821
3.72508,659
3.72985,1003
3.73462,794
3.73937,985
3.74413,893
3.7489,776
3.75367,1059
3.75842,869
3.76318,633
3.76795,895
3.7727,833
3.77747,923
3.78223,847
3.787,907
3.79175,964
3.79652,877
3.80128,788
3.80603,713
3.8108,740
3.81557,944
3.82033,696
3.82508,900
3.82985,654
3.83462,869
3.83937,644
3.84413,738
3.8489,884
3.85367,998
3.85842,803
3.86318,797
3.86795,850
3.87272,677
3.87747,854
3.88223,843
3.887,853
3.89175,953
3.89652,747
3.90128,641
3.90605,668
3.9108,646
3.91557,767
3.92033,675
3.92508,634
3.92985,698
3.93462,710
3.93938,768
3.94413,693
3.9489,733
3.95367,586
3.95842,1671
3.96318,842
3.96795,1294
3.97272,4852
3.97747,6393
3.98223,5071
3.987,3318
3.99175,2197
3.99652,2372
4.00128,1904
4.00605,1231
4.0108,1280
4.01557,1257
4.02033,1524
4.0251,813
4.02985,815
4.03462,907
4.03938,863
4.04413,705
4.0489,822
4.05367,879
4.05843,736
4.06318,1036
4.06795,740
4.07272,810
4.07747,807
4.08223,998
4.087,1095
4.09177,751
4.09652,876
4.10128,625
4.10605,580
4.1108,946
4.11557,969
4.12033,1013
4.1251,736
4.12985,628
4.13462,783
4.13938,727
4.14413,1063
4.1489,664
4.15367,733
4.15843,920
4.16318,624
4.16795,956
4.17272,594
4.17747,1064
4.18223,741
4.187,1141
4.19177,835
4.19652,900
4.20128,831
4.20605,773
4.21082,796
4.21557,985
4.22033,1293
4.2251,958
4.22985,741
4.23462,1138
4.23938,916
4.24415,852
4.2489,653
4.25367,819
4.25843,695
4.26318,765
4.26795,522
4.27272,693
4.27748,850
4.28223,593
4.287,956
4.29177,1089
4.29652,1193
4.30128,1019
4.30605,1190
4.31082,937
4.31557,829
4.32033,1028
4.3251,884
4.32985,895
4.33462,822
4.33938,790
4.34415,1007
4.3489,863
4.35367,929
4.35843,1036
4.3632,937
4.36795,752
4.37272,666
4.37748,941
4.38223,1025
4.387,824
4.39177,859
4.39653,829
4.40128,750
4.40605,1079
4.41082,1143
4.41557,971
4.42033,915
4.4251,843
4.42987,845
4.43462,1786
4.43938,4613
4.44415,4001
4.4489,1942
4.45367,1069
4.45843,982
4.4632,1380
4.46795,817
4.47272,705
4.47748,1053
4.48223,924
4.487,854
4.49177,863
4.49653,754
4.50128,981
4.50605,903
4.51082,767
4.51557,798
4.52033,791
4.5251,751
4.52987,863
4.53462,985
4.53938,784
4.54415,826
4.54892,976
4.55367,803
4.55843,963
4.5632,988
4.56795,862
4.57272,964
4.57748,861
4.58225,851
4.587,868
4.59177,860
4.59653,1064
4.60128,958
4.60605,919
4.61082,753
4.61558,947
4.62033,756
4.6251,1060
4.62987,1099
4.63462,850
4.63938,883
4.64415,975
4.64892,770
4.65367,1035
4.65843,1071
4.6632,965
4.66795,933
4.67272,976
4.67748,889
4.68225,865
4.687,1180
4.69177,833
4.69653,1092
4.7013,847
4.70605,1048
4.71082,973
4.71558,1190
4.72033,843
4.7251,1306
4.72987,1035
4.73463,932
4.73938,944
4.74415,1227
4.74892,953
4.75367,833
4.75843,821
4.7632,1096
4.76797,990
4.77272,1190
4.77748,1011
4.78225,1034
4.787,980
4.79177,1022
4.79653,1337
4.8013,1020
4.80605,1120
4.81082,1163
4.81558,1011
4.82033,1291
4.8251,1072
4.82987,930
4.83463,1006
4.83938,971
4.84415,1252
4.84892,1414
4.85367,1024
4.85843,1213
4.8632,841
4.86797,1143
4.87272,1141
4.87748,937
4.88225,923
4.88702,935
4.89177,905
4.89653,856
4.9013,972
4.90605,1181
4.91082,1086
4.91558,1101
4.92035,1125
4.9251,808
4.92987,1279
4.93463,1071
4.93938,884
4.94415,882
4.94892,1025
4.95368,1039
4.95843,1037
4.9632,1244
4.96797,968
4.97272,1009
4.97748,1320
4.98225,920
4.98702,1100
4.99177,936
4.99653,858
5.0013,859
5.00605,1206
5.01082,963
5.01558,969
5.02035,1318
5.0251,1205
5.02987,966
5.03463,868
5.03938,1197
5.04415,1032
5.04892,1135
5.05368,1158
5.05843,944
5.0632,1167
5.06797,1176
5.07273,874
5.07748,1191
5.08225,931
5.08702,1376
5.09177,911
5.09653,1137
5.1013,1101
5.10607,1250
5.11082,1027
5.11558,823
5.12035,1291
5.1251,766
5.12987,1286
5.13463,1013
5.1394,1210
5.14415,860
5.14892,1300
5.15368,1353
5.15843,1338
5.1632,1403
5.16797,2688
5.17273,2330
5.17748,1261
5.18225,1359
5.18702,1302
5.19177,1200
5.19653,1439
5.2013,1485
5.20607,1237
5.21082,1155
5.21558,1043
5.22035,1059
5.22512,1115
5.22987,1124
5.23463,1183
5.2394,1451
5.24415,1127
5.24892,1009
5.25368,925
5.25845,1137
5.2632,1109
5.26797,1182
5.27273,852
5.27748,948
5.28225,1307
5.28702,1371
5.29178,1035
5.29653,1330
5.3013,1166
5.30607,1115
5.31082,1270
5.31558,1810
5.32035,1619
5.32512,1591
5.32987,1149
5.33463,1068
5.3394,1210
5.34415,1122
5.34892,1217
5.35368,1260
5.35845,1035
5.3632,1173
5.36797,1201
5.37273,1256
5.37748,1170
5.38225,1086
5.38702,1380
5.39178,1230
5.39653,1128
5.4013,1488
5.40607,1159
5.41083,1003
5.41558,1451
5.42035,877
5.42512,1308
5.42987,1254
5.43463,1245
5.4394,1274
5.44417,1158
5.44892,1296
5.45368,1249
5.45845,1270
5.4632,1150
5.46797,1425
5.47273,1690
5.4775,3110
5.48225,2904
5.48702,1488
5.49178,1358
5.49653,1288
5.5013,1475
5.50607,1434
5.51083,1512
5.51558,1283
5.52035,1351
5.52512,1109
5.52987,1580
5.53463,1389
5.5394,1493
5.54417,1295
5.54892,1269
5.55368,1049
5.55845,1554
5.56322,1485
5.56797,1536
5.57273,1543
5.5775,1291
5.58225,1148
5.58702,1339
5.59178,1373
5.59655,1637
5.6013,1658
5.60607,1301
5.61083,1494
5.61558,1375
5.62035,1456
5.62512,1538
5.62988,1307
5.63463,1197
5.6394,1591
5.64417,1481
5.64892,1314
5.65368,1648
5.65845,1272
5.66322,1444
5.66797,1424
5.67273,1311
5.6775,1496
5.68225,1266
5.68702,1394
5.69178,1170
5.69655,1540
5.7013,1482
5.70607,1261
5.71083,1477
5.71558,1496
5.72035,1258
5.72512,990
5.72988,1570
5.73463,1269
5.7394,1534
5.74417,1488
5.74893,1368
5.75368,1161
5.75845,1554
5.76322,1328
5.76797,1400
5.77273,1468
5.7775,1528
5.78227,1495
5.78702,1882
5.79178,1460
5.79655,1296
5.8013,1880
5.80607,1593
5.81083,2301
5.8156,2070
5.82035,1703
5.82512,1573
5.82988,1528
5.83463,1259
5.8394,1373
5.84417,1362
5.84893,1502
5.85368,1704
5.85845,1778
5.86322,1302
5.86797,1423
5.87273,1658
5.8775,1909
5.88227,1580
5.88702,1448
5.89178,1535
5.89655,1523
5.90132,1933
5.90607,5715
5.91083,10293
5.9156,8307
5.92035,3332
5.92512,1598
5.92988,1251
5.93465,1758
5.9394,1578
5.94417,1669
5.94893,1550
5.95368,1477
5.95845,1642
5.96322,1646
5.96798,1577
5.97273,1656
5.9775,1534
5.98227,1443
5.98702,1886
5.99178,1757
5.99655,1551
6.00132,1494
6.00607,1529
6.01083,1673
6.0156,1872
6.02035,1669
6.02512,1494
6.02988,1765
6.03465,1324
6.0394,1619
6.04417,1601
6.04893,1919
6.05368,1511
6.05845,1756
6.06322,1775
6.06798,1910
6.07273,1882
6.0775,1670
6.08227,1685
6.08703,1696
6.09178,1973
6.09655,1835
6.10132,1607
6.10607,1849
6.11083,5194
6.1156,23948
6.12037,49676
6.12512,43032
6.12988,15896
6.13465,5534
6.1394,2446
6.14417,2335
6.14893,2288
6.1537,1846
6.15845,1961
6.16322,1836
6.16798,1901
6.17273,1676
6.1775,1896
6.18227,2361
6.18703,2514
6.19178,2025
6.19655,1561
6.20132,1880
6.20607,1626
6.21083,1680
6.2156,1926
6.22037,1951
6.22512,1906
6.22988,1964
6.23465,2090
6.2394,1773
6.24417,1727
6.24893,1977
6.2537,1869
6.25845,2323
6.26322,1833
6.26798,2076
6.27275,1855
6.2775,2160
6.28227,1845
6.28703,2320
6.29178,2179
6.29655,2052
6.30132,1805
6.30608,1765
6.31083,2342
6.3156,1867
6.32037,1769
6.32512,2086
6.32988,2358
6.33465,2269
6.33942,1786
6.34417,1769
6.34893,2257
6.3537,2318
6.35845,2040
6.36322,2055
6.36798,2123
6.37275,2416
6.3775,2017
6.38227,2328
6.38703,2775
6.39178,2920
6.39655,2391
6.40132,2698
6.40608,2371
6.41083,2046
6.4156,2694
6.42037,1968
6.42513,2628
6.42988,2575
6.43465,2726
6.43942,2584
6.44417,2286
6.44893,1847
6.4537,2758
6.45847,2092
6.46322,2791
6.46798,2528
6.47275,2321
6.4775,2523
6.48227,2829
6.48703,4618
6.4918,56486
6.49655,449606
6.50132,2637030
6.50608,6541258
6.51083,5227826
6.5156,1654214
6.52037,571784
6.52513,303578
6.52988,196990
6.53465,140035
6.53942,107377
6.54417,84795
6.54893,69468
6.5537,62926
6.55847,49385
6.56322,42695
6.56798,39429
6.57275,32158
6.5775,29664
6.58227,29290
6.58703,26069
6.5918,23737
6.59655,20698
6.60132,19956
6.60608,18034
6.61085,18158
6.6156,16269
6.62037,15141
6.62513,15132
6.62988,15262
6.63465,14158
6.63942,11283
6.64418,10742
6.64893,9774
6.6537,10317
6.65847,10984
6.66322,10521
6.66798,10242
6.67275,9662
6.67752,8804
6.68227,9490
6.68703,8973
6.6918,7694
6.69655,7012
6.70132,8383
6.70608,7976
6.71085,8239
6.7156,6886
6.72037,7330
6.72513,7181
6.72988,6551
6.73465,6099
6.73942,6254
6.74418,7292
6.74893,6815
6.7537,6757
6.75847,7291
6.76323,6512
6.76798,6455
6.77275,6678
6.77752,6224
6.78227,6741
6.78703,6525
6.7918,6347
6.79657,5940
6.80132,5247
6.80608,6411
6.81085,5295
6.8156,5761
6.82037,5699
6.82513,5847
6.8299,5994
6.83465,5637
6.83942,4633
6.84418,4859
6.84893,5292
6.8537,5294
6.85847,6522
6.86323,5056
6.86798,6550
6.87275,5171
6.87752,5290
6.88227,5478
6.88703,6321
6.8918,4937
6.89657,4847
6.90132,4969
6.90608,5529
6.91085,5395
6.9156,6102
6.92037,5692
6.92513,5076
6.9299,6113
6.93465,7590
6.93942,7227
6.94418,5840
6.94895,5683
6.9537,5748
6.95847,6094
6.96323,5721
6.96798,5971
6.97275,5468
6.97752,5239
6.98228,5164
6.98703,5556
6.9918,5548
6.99657,5455
7.00132,5909
7.00608,5633
7.01085,5044
7.01562,5055
7.02037,5410
7.02513,5225
7.0299,5018
7.03465,5278
7.03942,5441
7.04418,5352
7.04895,5449
7.0537,5279
7.05847,5239
7.06323,4951
7.06798,5058
7.07275,4944
7.07752,5659
7.08228,5477
7.08703,5130
7.0918,4674
7.09657,5732
7.10133,5956
7.10608,4932
7.11085,6281
7.11562,5118
7.12037,5639
7.12513,5565
7.1299,5358
7.13467,5522
7.13942,5343
7.14418,5651
7.14895,5707
7.1537,5244
7.15847,4137
7.16323,5149
7.168,5373
7.17275,5796
7.17752,5989
7.18228,5299
7.18703,5967
7.1918,5152
7.19657,5116
7.20133,4929
7.20608,5430
7.21085,6225
7.21562,5416
7.22037,5417
7.22513,5790
7.2299,5736
7.23467,5204
7.23942,5107
7.24418,4769
7.24895,5375
7.2537,4638
7.25847,5220
7.26323,5970
7.268,6609
7.27275,6053
7.27752,5702
7.28228,5340
7.28705,5594
7.2918,5683
7.29657,5425
7.30133,5833
7.30608,5634
7.31085,5580
7.31562,5586
7.32038,4817
7.32513,5333
7.3299,5401
7.33467,6446
7.33942,6335
7.34418,5824
7.34895,5764
7.35372,6109
7.35847,5143
7.36323,5533
7.368,5397
7.37275,5860
7.37752,6362
7.38228,6553
7.38705,8269
7.3918,22856
7.39657,77834
7.40133,211457
7.40608,541750
7.41085,1311590
7.41562,2483216
7.42038,3261078
7.42513,2469003
7.4299,1114855
7.43467,559153
7.43942,357850
7.44418,266760
7.44895,204351
7.45372,165454
7.45847,132357
7.46323,112789
7.468,99433
7.47277,83227
7.47752,75872
7.48228,68188
7.48705,61501
7.4918,54769
7.49657,51464
7.50133,44967
7.5061,44372
7.51085,37099
7.51562,37340
7.52038,33334
7.52513,30839
7.5299,26861
7.53467,26121
7.53943,24129
7.54418,22888
7.54895,21213
7.55372,21165
7.55847,19696
7.56323,20634
7.568,19439
7.57277,16574
7.57752,17626
7.58228,16309
7.58705,16763
7.5918,14703
7.59657,15148
7.60133,14704
7.6061,14320
7.61085,14198
7.61562,13641
7.62038,13747
7.62515,13838
7.6299,13026
7.63467,12574
7.63943,11692
7.64418,10111
7.64895,11351
7.65372,10741
7.65848,10737
7.66323,11255
7.668,9102
7.67277,9772
7.67752,10612
7.68228,9367
7.68705,9706
7.69182,9467
7.69657,9034
7.70133,8895
7.7061,9322
7.71085,8492
7.71562,9775
7.72038,9104
7.72515,9073
7.7299,9310
7.73467,9736
7.73943,8618
7.74418,8327
7.74895,8236
7.75372,9030
7.75848,7775
7.76323,8059
7.768,8748
7.77277,7812
7.77752,7708
7.78228,10937
7.78705,15081
7.79182,20207
7.79657,19232
7.80133,16186
7.8061,13431
7.81087,9914
7.81562,8710
7.82038,8565
7.82515,7753
7.8299,8258
7.83467,8614
7.83943,6766
7.8442,7910
7.84895,8263
7.85372,8209
7.85848,7475
7.86323,6646
7.868,7695
7.87277,6582
7.87753,6669
7.88228,7142
7.88705,6418
7.89182,7229
7.89657,7309
7.90133,6331
7.9061,6791
7.91087,7188
7.91562,7553
7.92038,6856
7.92515,7271
7.9299,7268
7.93467,6955
7.93943,6873
7.9442,6237
7.94895,5143
7.95372,7345
7.95848,6588
7.96325,6976
7.968,7233
7.97277,6611
7.97753,7266
7.98228,7186
7.98705,6743
7.99182,7244
7.99658,7044
8.00133,6347
8.0061,6505
8.01087,7646
8.01562,6682
8.02038,6889
8.02515,6875
8.02992,6708
8.03467,7325
8.03943,6775
8.0442,6627
8.04895,6288
8.05372,6754
8.05848,6461
8.06325,6320
8.068,6895
8.07277,6250
8.07753,7193
8.08228,7621
8.08705,7082
8.09182,6967
8.09658,7102
8.10133,6449
8.1061,7087
8.11087,6261
8.11562,6607
8.12038,6846
8.12515,6497
8.12992,6714
8.13467,7010
8.13943,6364
8.1442,6877
8.14897,6107
8.15372,6775
8.15848,6435
8.16325,6434
8.168,6543
8.17277,6234
8.17753,5908
8.1823,6514
8.18705,6741
8.19182,6660
8.19658,7020
8.20133,7300
8.2061,6202
8.21087,6339
8.21563,6610
8.22038,6327
8.22515,7140
8.22992,5800
8.23467,5655
8.23943,5612
8.2442,6835
8.24897,6910
8.25372,6202
8.25848,6886
8.26325,6456
8.268,6534
8.27277,7244
8.27753,6306
8.2823,5940
8.28705,6096
8.29182,7666
8.29658,7138
8.30135,6809
8.3061,6327
8.31087,6338
8.31563,6911
8.32038,6492
8.32515,6454
8.32992,6210
8.33468,6489
8.33943,6402
8.3442,6523
8.34897,6905
8.35372,7197
8.35848,5962
8.36325,6349
8.36802,6814
8.37277,6494
8.37753,5808
8.3823,5827
8.38705,6312
8.39182,6811
8.39658,6145
8.40135,6249
8.4061,5889
8.41087,7297
8.41563,6942
8.42038,6707
8.42515,6227
8.42992,6853
8.43468,6426
8.43943,6540
8.4442,7091
8.44897,5487
8.45372,6399
8.45848,5956
8.46325,6240
8.46802,6757
8.47277,6262
8.47753,6268
8.4823,6673
8.48707,6072
8.49182,6458
8.49658,5961
8.50135,6584
8.5061,6832
8.51087,6387
8.51563,6500
8.5204,6860
8.52515,6699
8.52992,6918
8.53468,7482
8.53943,6874
8.5442,6007
8.54897,6768
8.55373,6755
8.55848,7327
8.56325,6712
8.56802,6106
8.57277,6048
8.57753,6462
8.5823,6680
8.58707,6051
8.59182,6328
8.59658,5843
8.60135,6898
8.6061,7027
8.61087,6051
8.61563,6526
8.6204,6782
8.62515,6266
8.62992,6421
8.63468,5849
8.63943,5997
8.6442,6380
8.64897,6304
8.65373,6416
8.65848,5985
8.66325,5468
8.66802,6444
8.67278,6005
8.67753,5442
8.6823,6331
8.68707,5634
8.69182,6823
8.69658,6440
8.70135,6231
8.70612,5804
8.71087,6054
8.71563,6421
8.7204,6423
8.72515,7046
8.72992,6382
8.73468,6525
8.73945,6565
8.7442,6106
8.74897,6310
8.75373,5666
8.75848,6139
8.76325,6757
8.76802,5830
8.77278,5790
8.77753,5729
8.7823,5998
8.78707,7450
8.79182,6535
8.79658,6192
8.80135,7370
8.80612,5737
8.81087,6245
8.81563,6652
8.8204,5834
8.82517,5923
8.82992,6271
8.83468,6769
8.83945,6086
8.8442,6356
8.84897,6477
8.85373,6528
8.8585,5582
8.86325,6009
8.86802,5856
8.87278,5662
8.87753,6473
8.8823,6329
8.88707,6262
8.89183,5975
8.89658,6299
8.90135,6545
8.90612,6406
8.91087,6756
8.91563,6490
8.9204,6976
8.92517,7127
8.92992,5657
8.93468,5747
8.93945,6024
8.9442,6945
8.94897,6144
8.95373,5935
8.9585,6290
8.96325,6026
8.96802,6323
8.97278,5492
8.97753,5785
8.9823,5801
8.98707,6005
8.99183,6126
8.99658,5254
9.00135,6206
9.00612,6098
9.01088,6337
9.01563,6940
9.0204,5784
9.02517,5889
9.02992,6117
9.03468,6359
9.03945,6011
9.04422,5840
9.04897,6502
9.05373,5591
9.0585,5652
9.06325,5815
9.06802,7078
9.07278,6091
9.07755,7215
9.0823,5793
9.08707,6095
9.09183,6530
9.09658,6277
9.10135,7205
9.10612,6524
9.11088,5811
9.11563,6013
9.1204,6313
9.12517,6401
9.12992,5822
9.13468,5161
9.13945,7103
9.14422,5923
9.14897,5850
9.15373,6260
9.1585,6018
9.16327,6248
9.16802,5905
9.17278,5967
9.17755,5253
9.1823,5655
9.18707,6056
9.19183,6161
9.1966,6341
9.20135,6380
9.20612,6097
9.21088,6346
9.21563,6338
9.2204,5666
9.22517,6798
9.22993,6406
9.23468,5404
9.23945,6269
9.24422,5615
9.24897,6068
9.25373,6348
9.2585,6615
9.26327,6730
9.26802,6368
9.27278,5761
9.27755,6361
9.2823,6107
9.28707,6814
9.29183,5889
9.2966,5407
9.30135,6387
9.30612,6393
9.31088,6476
9.31563,6912
9.3204,6259
9.32517,5749
9.32993,5745
9.33468,6379
9.33945,6382
9.34422,5701
9.34898,6073
9.35373,6421
9.3585,5366
9.36327,7210
9.36802,6312
9.37278,5919
9.37755,6104
9.38232,6307
9.38707,5732
9.39183,6512
9.3966,6058
9.40135,5845
9.40612,6741
9.41088,6063
9.41565,6167
9.4204,5717
9.42517,6767
9.42993,4750
9.43468,6268
9.43945,5935
9.44422,6247
9.44898,5828
9.45373,6065
9.4585,6026
9.46327,6071
9.46802,5582
9.47278,6521
9.47755,5764
9.48232,6062
9.48707,5283
9.49183,6303
9.4966,5914
9.50137,5773
9.50612,6054
9.51088,5882
9.51565,5450
9.5204,5737
9.52517,6119
9.52993,6128
9.5347,6068
9.53945,5337
9.54422,6051
9.54898,6236
9.55373,5160
9.5585,6162
9.56327,6265
9.56803,6010
9.57278,6564
9.57755,5975
9.58232,6561
9.58707,7356
9.59183,6402
9.5966,5827
9.60137,6071
9.60612,6334
9.61088,5793
9.61565,6167
9.6204,5200
9.62517,5805
9.62993,6431
9.6347,5407
9.63945,6002
9.64422,5684
9.64898,5451
9.65373,5500
9.6585,6412
9.66327,6201
9.66803,5545
9.67278,6449
9.67755,6491
9.68232,6035
9.68708,5799
9.69183,6168
9.6966,6705
9.70137,6544
9.70612,6195
9.71088,6068
9.71565,5838
9.72042,6453
9.72517,6312
9.72993,5748
9.7347,6331
9.73945,5154
9.74422,6229
9.74898,6411
9.75375,5599
9.7585,5861
9.76327,6218
9.76803,5720
9.77278,6020
9.77755,6155
9.78232,5934
9.78708,6546
9.79183,6521
9.7966,6069
9.80137,5873
9.80612,5453
9.81088,6095
9.81565,6294
9.82042,5612
9.82517,7112
9.82993,5361
9.8347,5715
9.83945,6073
9.84422,6407
9.84898,5622
9.85375,6310
9.8585,6170
9.86327,5665
9.86803,5879
9.8728,5657
9.87755,5907
9.88232,6420
9.88708,6485
9.89183,5363
9.8966,5714
9.90137,6148
9.90613,5610
9.91088,5173
9.91565,5415
9.92042,5041
9.92517,6146
9.92993,5964
9.9347,6923
9.93947,5783
9.94422,5946
9.94898,5456
9.95375,5984
9.9585,6664
9.96327,6497
9.96803,6219
9.9728,6312
9.97755,5965
9.98232,5857
9.98708,5882
9.99183,5408
9.9966,5725
10.0014,5772
10.0061,6337
10.0109,6054
10.0157,6556
10.0204,6434
10.0252,5617
10.0299,6010
10.0347,5400
10.0395,6237
10.0442,5818
10.049,5631
10.0538,6575
10.0585,6364
10.0633,6247
10.068,6042
10.0728,6736
10.0776,5957
10.0823,5977
10.0871,5379
10.0919,5628
10.0966,5928
10.1014,6079
10.1061,5640
10.1109,6894
10.1157,5997
10.1204,5467
10.1252,5812
10.1299,5489
10.1347,5565
10.1395,6007
10.1442,6369
10.149,5425
10.1538,6450
10.1585,5431
10.1633,6663
10.168,6803
10.1728,6801
10.1776,9240
10.1823,14199
10.1871,26359
10.1919,47425
10.1966,71206
10.2014,104161
10.2061,153803
10.2109,218094
10.2157,311057
10.2204,445995
10.2252,619665
10.2299,856038
10.2347,1105409
10.2395,1382289
10.2442,1597804
10.249,1733218
10.2538,1614823
10.2585,1344096
10.2633,1014794
10.268,749716
10.2728,585400
10.2776,467580
10.2823,389370
10.2871,334699
10.2919,294801
10.2966,260030
10.3014,233025
10.3061,205578
10.3109,183348
10.3157,170735
10.3204,152410
10.3252,143419
10.3299,130436
10.3347,123434
10.3395,114161
10.3442,106892
10.349,101292
10.3538,92718
10.3585,88252
10.3633,83598
10.368,79776
10.3728,72169
10.3776,71084
10.3823,64186
10.3871,61739
10.3919,57742
10.3966,54222
10.4014,50382
10.4061,50195
10.4109,45501
10.4157,43966
10.4204,43051
10.4252,38308
10.43,39203
10.4347,38035
10.4395,36886
10.4442,34306
10.449,28703
10.4538,30434
10.4585,31275
10.4633,26560
10.468,26739
10.4728,25781
10.4776,24300
10.4823,22377
10.4871,21756
10.4919,22769
10.4966,21102
10.5014,20116
10.5061,20646
10.5109,19690
10.5157,19546
10.5204,18685
10.5252,17456
10.53,18694
10.5347,17116
10.5395,17262
10.5442,17210
10.549,14502
10.5538,14126
10.5585,15342
10.5633,14201
10.568,13425
10.5728,12708
10.5776,12670
10.5823,12286
10.5871,12406
10.5919,12262
10.5966,12001
10.6014,12681
10.6061,12023
10.6109,12071
10.6157,11747
10.6204,11592
10.6252,11831
10.63,10304
10.6347,10295
10.6395,10583
10.6442,10680
10.649,10979
10.6538,9303
10.6585,9628
10.6633,9425
10.668,9880
10.6728,8826
10.6776,9184
10.6823,9174
10.6871,10967
10.6919,10691
10.6966,9068
10.7014,8845
10.7061,9267
10.7109,9301
10.7157,8787
10.7204,8763
10.7252,8846
10.73,7616
10.7347,8542
10.7395,8931
10.7442,8979
10.749,9100
10.7538,7338
10.7585,8166
10.7633,7822
10.7681,7962
10.7728,7829
10.7776,8711
10.7823,7728
10.7871,7172
10.7919,7997
10.7966,7376
10.8014,8040
10.8061,7246
10.8109,7264
10.8157,7964
10.8204,7452
10.8252,7777
10.83,6560
10.8347,6805
10.8395,7407
10.8442,8103
10.849,7665
10.8538,7530
10.8585,7245
10.8633,6445
10.8681,7027
10.8728,6207
10.8776,7557
10.8823,7075
10.8871,7592
10.8919,7230
10.8966,6679
10.9014,7388
10.9061,7454
10.9109,7425
10.9157,7439
10.9204,7605
10.9252,7101
10.93,7582
10.9347,6742
10.9395,7236
10.9442,6825
10.949,6677
10.9538,6796
10.9585,7670
10.9633,6802
10.9681,7535
10.9728,6700
10.9776,7220
10.9823,6557
10.9871,7703
10.9919,6634
10.9966,6815
11.0014,7554
11.0061,5800
11.0109,6361
11.0157,6628
11.0204,7304
11.0252,6391
11.03,6548
11.0347,7340
11.0395,7549
11.0442,6362
11.049,6855
11.0538,7485
11.0585,7272
11.0633,7062
11.0681,7121
11.0728,6719
11.0776,7213
11.0823,6643
11.0871,7512
11.0919,6271
11.0966,7179
11.1014,6570
11.1062,6855
11.1109,6528
11.1157,6196
11.1204,6752
11.1252,5924
11.13,7180
11.1347,7329
11.1395,7003
11.1442,7138
11.149,6802
11.1538,5945
11.1585,6568
11.1633,6917
11.1681,5891
11.1728,6546
11.1776,6896
11.1823,7429
11.1871,7358
11.1919,6228
11.1966,7297
11.2014,7965
11.2062,6869
11.2109,6515
11.2157,6037
11.2204,6232
11.2252,6421
11.23,5911
11.2347,6123
11.2395,7130
11.2442,6624
11.249,6134
11.2538,6990
11.2585,5797
11.2633,6812
11.2681,6917
11.2728,6787
11.2776,7133
11.2823,7385
11.2871,7539
11.2919,8146
11.2966,7162
11.3014,7940
11.3062,6605
11.3109,7411
11.3157,6547
11.3204,7164
11.3252,6397
11.33,6761
11.3347,6301
11.3395,5937
11.3442,6246
11.349,6414
11.3538,6493
11.3585,6629
11.3633,6360
11.3681,5948
11.3728,7159
11.3776,6246
11.3823,6125
11.3871,7438
11.3919,7004
11.3966,6405
11.4014,7264
11.4062,6915
11.4109,7135
11.4157,6911
11.4204,5241
11.4252,5995
11.43,6410
11.4347,6570
11.4395,6233
11.4443,6204
11.449,6951
11.4538,6994
11.4585,6197
11.4633,5483
11.4681,5926
11.4728,6240
11.4776,6499
11.4823,6148
11.4871,7108
11.4919,6313
11.4966,6801
11.5014,6116
11.5062,6879
11.5109,6648
11.5157,5832
11.5204,6320
11.5252,6564
11.53,6146
11.5347,5839
11.5395,6917
11.5443,7295
11.549,6467
11.5538,6144
11.5585,6351
11.5633,6408
11.5681,6387
11.5728,5801
11.5776,5429
11.5823,5830
11.5871,6108
11.5919,7097
11.5966,6443
11.6014,6003
11.6062,6748
11.6109,6329
11.6157,6108
11.6204,6628
11.6252,6304
11.63,6291
11.6347,6120
11.6395,7487
11.6443,6047
11.649,6230
11.6538,6380
11.6585,5571
11.6633,6373
11.6681,6172
11.6728,6252
11.6776,6231
11.6823,5642
11.6871,6005
11.6919,5797
11.6966,6394
11.7014,5879
11.7062,5760
11.7109,6230
11.7157,6276
11.7204,7314
11.7252,5487
11.73,6625
11.7347,7451
11.7395,5764
11.7443,6283
11.749,6102
11.7538,6140
11.7585,5947
11.7633,6508
11.7681,6105
11.7728,6370
11.7776,6395
11.7824,7236
11.7871,5455
11.7919,6126
11.7966,6355
11.8014,6646
11.8062,6073
11.8109,6181
11.8157,5870
11.8204,6436
11.8252,5963
11.83,5976
11.8347,5997
11.8395,6501
11.8443,5813
11.849,7045
11.8538,5912
11.8585,6205
11.8633,6034
11.8681,6404
11.8728,5733
11.8776,5407
11.8824,6197
11.8871,6050
11.8919,6140
11.8966,6336
11.9014,5415
11.9062,6162
11.9109,5379
11.9157,6256
11.9204,6060
11.9252,5690
11.93,6358
11.9347,6392
11.9395,5799
11.9443,5641
11.949,6319
11.9538,6425
11.9585,5950
11.9633,6690
11.9681,6934
11.9728,6543
11.9776,6012
11.9824,5872
11.9871,5697
11.9919,6822
11.9966,5647
12.0014,5554
12.0062,5853
12.0109,5719
12.0157,6437
12.0204,6042
12.0252,5624
12.03,5694
12.0347,6031
12.0395,5351
12.0443,6013
12.049,6760
12.0538,5086
12.0585,6224
12.0633,5865
12.0681,6352
12.0728,6248
12.0776,6678
12.0824,5782
12.0871,6237
12.0919,6418
12.0966,6935
12.1014,6134
12.1062,7109
12.1109,6237
12.1157,6407
12.1205,6418
12.1252,6287
12.13,7082
12.1347,5514
12.1395,6908
12.1443,5973
12.149,6212
12.1538,7243
12.1585,6904
12.1633,6446
12.1681,6030
12.1728,6241
12.1776,6240
12.1824,5639
12.1871,6311
12.1919,6676
12.1966,5821
12.2014,5637
12.2062,6033
12.2109,5234
12.2157,5201
12.2205,6603
12.2252,5880
12.23,6251
12.2347,6554
12.2395,5544
12.2443,5158
12.249,6376
12.2538,5685
12.2585,5412
12.2633,6019
12.2681,5860
12.2728,6282
12.2776,5809
12.2824,5722
12.2871,6500
12.2919,5987
12.2966,5776
12.3014,5790
12.3062,6654
12.3109,5913
12.3157,6582
12.3205,5622
12.3252,5802
12.33,5660
12.3347,5904
12.3395,5087
12.3443,5894
12.349,6061
12.3538,7625
12.3585,6019
12.3633,5733
12.3681,5735
12.3728,5800
12.3776,5309
12.3824,5236
12.3871,6073
12.3919,6647
12.3966,6411
12.4014,5342
12.4062,6621
12.4109,5751
12.4157,6355
12.4205,5897
12.4252,6370
12.43,6306
12.4347,6416
12.4395,5689
12.4443,6646
12.449,5808
12.4538,6146
12.4586,6154
12.4633,5783
12.4681,6220
12.4728,5741
12.4776,5430
12.4824,6082
12.4871,6137
12.4919,5088
12.4966,6021
12.5014,5937
12.5062,5862
12.5109,5931
12.5157,6182
12.5205,7171
12.5252,5330
12.53,5944
12.5347,6667
12.5395,6334
12.5443,6100
12.549,5488
12.5538,5209
12.5586,6922
12.5633,6159
12.5681,6072
12.5728,5830
12.5776,5883
12.5824,5768
12.5871,6584
12.5919,6200
12.5966,6591
12.6014,6348
12.6062,6296
12.6109,6302
12.6157,6998
12.6205,6696
12.6252,5614
12.63,5505
12.6347,5529
12.6395,5723
12.6443,6001
12.649,5890
12.6538,5934
12.6586,5226
12.6633,5900
12.6681,5815
12.6728,5693
12.6776,5589
12.6824,5927
12.6871,5479
12.6919,5318
12.6966,6232
12.7014,5777
12.7062,5220
12.7109,5407
12.7157,6412
12.7205,5489
12.7252,5646
12.73,5310
12.7347,5567
12.7395,6621
12.7443,5749
12.749,6622
12.7538,6265
12.7586,5952
12.7633,5838
12.7681,5645
12.7728,6005
12.7776,5787
12.7824,5513
12.7871,5556
12.7919,6355
12.7967,5999
12.8014,5292
12.8062,6083
12.8109,5972
12.8157,5437
12.8205,6067
12.8252,6146
12.83,6398
12.8347,6281
12.8395,5864
12.8443,6217
12.849,5969
12.8538,5627
12.8586,5894
12.8633,6200
12.8681,5802
12.8728,5346
12.8776,6268
12.8824,5867
12.8871,6037
12.8919,6672
12.8967,5595
12.9014,5599
12.9062,5325
12.9109,5847
12.9157,5497
12.9205,6658
12.9252,6171
12.93,5668
12.9347,5520
12.9395,5574
12.9443,5950
12.949,5502
12.9538,5401
12.9586,6351
12.9633,5906
12.9681,5605
12.9728,5244
12.9776,6141
12.9824,5648
12.9871,5656
12.9919,6164
12.9967,6813
13.0014,5784
13.0062,6110
13.0109,5889
13.0157,6475
13.0205,4855
13.0252,6183
13.03,6193
13.0347,5931
13.0395,5503
13.0443,5474
13.049,6225
13.0538,5737
13.0586,5531
13.0633,6004
13.0681,5706
13.0728,5473
13.0776,5117
13.0824,5942
13.0871,5754
13.0919,6126
13.0967,5901
13.1014,5964
13.1062,5551
13.1109,6030
13.1157,5288
13.1205,6109
13.1252,5944
13.13,6422
13.1348,5996
13.1395,5613
13.1443,5546
13.149,5801
13.1538,6260
13.1586,5804
13.1633,5534
13.1681,6252
13.1728,6298
13.1776,6054
13.1824,7007
13.1871,5874
13.1919,5547
13.1967,6449
13.2014,6145
13.2062,6136
13.2109,6104
13.2157,5671
13.2205,6132
13.2252,6703
13.23,7084
13.2348,5996
13.2395,5715
13.2443,5894
13.249,6276
13.2538,5631
13.2586,5375
13.2633,5737
13.2681,5291
13.2728,6222
13.2776,6255
13.2824,5317
13.2871,6057
13.2919,6616
13.2967,5479
13.3014,4982
13.3062,5763
13.3109,5692
13.3157,6988
13.3205,5477
13.3252,5952
13.33,5712
13.3348,5484
13.3395,5014
13.3443,6298
13.349,5856
13.3538,5990
13.3586,5715
13.3633,5684
13.3681,6274
13.3728,5482
13.3776,5464
13.3824,5411
13.3871,5648
13.3919,5627
13.3967,5889
13.4014,6206
13.4062,5864
13.4109,4925
13.4157,5798
13.4205,5154
13.4252,6087
13.43,5870
13.4348,5205
13.4395,5239
13.4443,5813
13.449,5272
13.4538,5811
13.4586,5894
13.4633,5490
13.4681,5677
13.4729,6323
13.4776,5980
13.4824,5573
13.4871,6067
13.4919,5747
13.4967,7003
13.5014,6430
13.5062,6078
13.5109,5245
13.5157,6081
13.5205,6370
13.5252,6002
13.53,5268
13.5348,5980
13.5395,6348
13.5443,6279
13.549,5964
13.5538,5426
13.5586,5302
13.5633,5018
13.5681,5473
13.5729,5897
13.5776,5946
13.5824,5249
13.5871,5789
13.5919,6309
13.5967,6147
13.6014,5931
13.6062,5781
13.6109,5426
13.6157,6241
13.6205,5895
13.6252,6987
13.63,5792
13.6348,5540
13.6395,5540
13.6443,5730
13.649,6139
13.6538,6079
13.6586,5956
13.6633,5785
13.6681,6662
13.6729,6135
13.6776,5873
13.6824,5585
13.6871,5135
13.6919,5307
13.6967,5651
13.7014,5543
13.7062,6116
13.7109,6468
13.7157,6312
13.7205,5530
13.7252,4882
13.73,5328
13.7348,5509
13.7395,6229
13.7443,5976
13.749,5689
13.7538,6556
13.7586,6139
13.7633,6450
13.7681,6284
13.7729,5408
13.7776,5745
13.7824,5409
13.7871,5587
13.7919,5853
13.7967,5644
13.8014,5545
13.8062,5904
13.811,6205
13.8157,5198
13.8205,5849
13.8252,6457
13.83,5652
13.8348,5728
13.8395,5729
13.8443,5440
13.849,6174
13.8538,5960
13.8586,5646
13.8633,5504
13.8681,5476
13.8729,6373
13.8776,5293
13.8824,6006
13.8871,6029
13.8919,5031
13.8967,5899
13.9014,5358
13.9062,5657
13.911,5868
13.9157,5323
13.9205,5581
13.9252,5476
13.93,6449
13.9348,6086
13.9395,5814
13.9443,6451
13.949,6061
13.9538,5559
13.9586,5318
13.9633,5555
13.9681,6030
13.9729,5421
13.9776,6110
13.9824,6021
13.9871,6016
13.9919,6768
13.9967,5673
14.0014,5534
14.0062,6544
14.011,6095
14.0157,5350
14.0205,7516
14.0252,7463
14.03,7431
14.0348,6023
14.0395,7745
14.0443,8063
14.049,8245
14.0538,8234
14.0586,7404
14.0633,9251
14.0681,9401
14.0729,7920
14.0776,7243
14.0824,7997
14.0871,8178
14.0919,7353
14.0967,6332
14.1014,7220
14.1062,6567
14.111,6518
14.1157,7183
14.1205,5724
14.1252,6148
14.13,5899
14.1348,5867
14.1395,6574
14.1443,7139
14.1491,5650
14.1538,6592
14.1586,5372
14.1633,5860
14.1681,5624
14.1729,6399
14.1776,5991
14.1824,6197
14.1871,6111
14.1919,5572
14.1967,6420
14.2014,5531
14.2062,6213
14.211,6000
14.2157,4925
14.2205,5714
14.2252,6061
14.23,5765
14.2348,5916
14.2395,6269
14.2443,6138
14.2491,5671
14.2538,6495
14.2586,5235
14.2633,6139
14.2681,5616
14.2729,5642
14.2776,5830
14.2824,5902
14.2871,6030
14.2919,6203
14.2967,5337
14.3014,6157
14.3062,5488
14.311,5491
14.3157,5669
14.3205,5824
14.3252,5543
14.33,5720
14.3348,5751
14.3395,5994
14.3443,5904
14.3491,5176
14.3538,6546
14.3586,5307
14.3633,5331
14.3681,5699
14.3729,6385
14.3776,6052
14.3824,5172
14.3871,6276
14.3919,5800
14.3967,5175
14.4014,5703
14.4062,5877
14.411,6235
14.4157,5798
14.4205,6374
14.4252,5975
14.43,6200
14.4348,6008
14.4395,6891
14.4443,5291
14.4491,5582
14.4538,5567
14.4586,5813
14.4633,5366
14.4681,5926
14.4729,5567
14.4776,5949
14.4824,6239
14.4872,5827
14.4919,5475
14.4967,5069
14.5014,5965
14.5062,6566
14.511,5683
14.5157,5739
14.5205,5679
14.5252,5841
14.53,5702
14.5348,4974
14.5395,5408
14.5443,5784
14.5491,5297
14.5538,5399
14.5586,5937
14.5633,5538
14.5681,6027
14.5729,5223
14.5776,5371
14.5824,5972
14.5872,5320
14.5919,6375
14.5967,5691
14.6014,5193
14.6062,5507
14.611,5268
14.6157,5629
14.6205,5426
14.6252,5904
14.63,6342
14.6348,6471
14.6395,6089
14.6443,5928
14.6491,5944
14.6538,5326
14.6586,5377
