D:\MassHunter\GCMS\1\data\Victoria Marland\22FEB\220223015.D 23 Feb 22  07:08 pm
Start of data points
3.09153,763
3.0963,967
3.10105,793
3.10582,1005
3.11058,874
3.11535,745
3.1201,752
3.12487,835
3.12963,455
3.13438,828
3.13915,655
3.14392,841
3.14868,828
3.15343,886
3.1582,850
3.16297,725
3.16772,727
3.17248,566
3.17725,1021
3.18202,816
3.18677,996
3.19153,784
3.1963,944
3.20105,930
3.20582,880
3.21058,896
3.21535,742
3.2201,1826
3.22487,945
3.22963,1045
3.23438,929
3.23915,802
3.24392,1020
3.24868,969
3.25343,766
3.2582,990
3.26297,927
3.26772,984
3.27248,804
3.27725,878
3.28202,889
3.28677,842
3.29153,871
3.2963,480
3.30107,750
3.30582,655
3.31058,840
3.31535,914
3.3201,753
3.32487,818
3.32963,966
3.3344,819
3.33915,560
3.34392,824
3.34868,806
3.35343,904
3.3582,1123
3.36297,585
3.36773,680
3.37248,842
3.37725,794
3.38202,538
3.38677,820
3.39153,978
3.3963,963
3.40107,731
3.40582,1075
3.41058,913
3.41535,684
3.4201,1044
3.42487,1057
3.42963,788
3.4344,860
3.43915,581
3.44392,804
3.44868,551
3.45345,669
3.4582,692
3.46297,963
3.46773,863
3.47248,1300
3.47725,835
3.48202,803
3.48678,647
3.49153,966
3.4963,698
3.50107,808
3.50582,997
3.51058,506
3.51535,1535
3.52012,3805
3.52487,10629
3.52963,8390
3.5344,3757
3.53915,1050
3.54392,964
3.54868,836
3.55345,930
3.5582,833
3.56297,833
3.56773,693
3.57248,975
3.57725,582
3.58202,800
3.58678,653
3.59153,987
3.5963,1018
3.60107,826
3.60582,682
3.61058,723
3.61535,787
3.62012,705
3.62487,1116
3.62963,1014
3.6344,735
3.63917,714
3.64392,522
3.64868,752
3.65345,1020
3.6582,987
3.66297,729
3.66773,933
3.6725,838
3.67725,618
3.68202,1003
3.68678,702
3.69153,522
3.6963,624
3.70107,1009
3.70583,754
3.71058,680
3.71535,916
3.72012,841
3.72487,997
3.72963,666
3.7344,906
3.73917,936
3.74392,943
3.74868,1098
3.75345,977
3.7582,687
3.76297,1149
3.76773,865
3.7725,811
3.77725,1070
3.78202,659
3.78678,785
3.79155,771
3.7963,1175
3.80107,668
3.80583,945
3.81058,768
3.81535,848
3.82012,885
3.82488,972
3.82963,892
3.8344,692
3.83917,978
3.84392,739
3.84868,790
3.85345,1168
3.85822,674
3.86297,832
3.86773,842
3.8725,939
3.87725,504
3.88202,849
3.88678,884
3.89155,957
3.8963,1009
3.90107,947
3.90583,773
3.91058,876
3.91535,1011
3.92012,835
3.92488,768
3.92963,894
3.9344,683
3.93917,1185
3.94392,954
3.94868,879
3.95345,820
3.95822,832
3.96297,1137
3.96773,767
3.9725,1175
3.97727,940
3.98202,892
3.98678,754
3.99155,839
3.9963,849
4.00107,847
4.00583,943
4.0106,1310
4.01535,975
4.02012,910
4.02488,990
4.02963,873
4.0344,844
4.03917,1118
4.04393,722
4.04868,1071
4.05345,1123
4.05822,780
4.06297,721
4.06773,1042
4.0725,745
4.07727,975
4.08202,950
4.08678,754
4.09155,772
4.0963,780
4.10107,719
4.10583,1012
4.1106,903
4.11535,1028
4.12012,979
4.12488,872
4.12965,953
4.1344,1043
4.13917,744
4.14393,734
4.14868,960
4.15345,909
4.15822,1156
4.16298,1064
4.16773,822
4.1725,702
4.17727,1010
4.18202,1180
4.18678,979
4.19155,961
4.19632,762
4.20107,803
4.20583,1356
4.2106,2042
4.21535,5387
4.22012,7056
4.22488,3929
4.22965,1061
4.2344,958
4.23917,1180
4.24393,736
4.24868,777
4.25345,797
4.25822,1027
4.26298,1013
4.26773,1151
4.2725,801
4.27727,997
4.28202,725
4.28678,892
4.29155,736
4.29632,850
4.30107,1280
4.30583,909
4.3106,1119
4.31537,941
4.32012,1241
4.32488,1087
4.32965,796
4.3344,1148
4.33917,1154
4.34393,1049
4.3487,993
4.35345,987
4.35822,1026
4.36298,868
4.36773,961
4.3725,891
4.37727,916
4.38203,972
4.38678,776
4.39155,841
4.39632,920
4.40107,1115
4.40583,1425
4.4106,1153
4.41537,1041
4.42012,907
4.42488,1164
4.42965,1124
4.4344,1022
4.43917,1083
4.44393,864
4.4487,1002
4.45345,1060
4.45822,1061
4.46298,761
4.46773,774
4.4725,1111
4.47727,1136
4.48203,785
4.48678,987
4.49155,717
4.49632,894
4.50108,1175
4.50583,1037
4.5106,832
4.51537,952
4.52012,982
4.52488,1107
4.52965,1085
4.53442,1059
4.53917,973
4.54393,947
4.5487,1027
4.55345,1239
4.55822,948
4.56298,1023
4.56775,969
4.5725,694
4.57727,1051
4.58203,1043
4.58678,933
4.59155,1146
4.59632,643
4.60108,856
4.60583,1071
4.6106,1119
4.61537,1199
4.62012,848
4.62488,811
4.62965,979
4.63442,794
4.63917,917
4.64393,1095
4.6487,717
4.65347,1196
4.65822,988
4.66298,1277
4.66775,803
4.6725,961
4.67727,1054
4.68203,1116
4.6868,770
4.69155,990
4.69632,907
4.70108,899
4.70583,1192
4.7106,880
4.71537,1228
4.72013,968
4.72488,1167
4.72965,785
4.73442,1087
4.73917,1194
4.74393,1244
4.7487,820
4.75347,1179
4.75822,780
4.76298,770
4.76775,1142
4.7725,944
4.77727,1322
4.78203,1038
4.7868,987
4.79155,1117
4.79632,1305
4.80108,2250
4.80583,4428
4.8106,3978
4.81537,2714
4.82013,895
4.82488,916
4.82965,1180
4.83442,856
4.83918,1357
4.84393,1052
4.8487,817
4.85347,805
4.85822,1117
4.86298,1192
4.86775,1006
4.87252,1005
4.87727,1270
4.88203,976
4.8868,1311
4.89155,1023
4.89632,1158
4.90108,1063
4.90585,1317
4.9106,1070
4.91537,1166
4.92013,862
4.92488,1350
4.92965,972
4.93442,1324
4.93918,979
4.94393,1268
4.9487,1251
4.95347,950
4.95822,1043
4.96298,1222
4.96775,753
4.97252,1302
4.97727,977
4.98203,1475
4.9868,1632
4.99157,1546
4.99632,1551
5.00108,1680
5.00585,1221
5.0106,1380
5.01537,1032
5.02013,1264
5.0249,1092
5.02965,1086
5.03442,1154
5.03918,1059
5.04393,1217
5.0487,914
5.05347,847
5.05823,902
5.06298,1231
5.06775,1141
5.07252,1128
5.07727,1420
5.08203,1271
5.0868,1028
5.09157,1143
5.09632,959
5.10108,1000
5.10585,1241
5.1106,1545
5.11537,1040
5.12013,1135
5.1249,1455
5.12965,1337
5.13442,1020
5.13918,1205
5.14393,1000
5.1487,1378
5.15347,1203
5.15823,868
5.16298,1065
5.16775,1342
5.17252,1204
5.17728,1415
5.18203,947
5.1868,1054
5.19157,1319
5.19632,1345
5.20108,1245
5.20585,992
5.21062,1244
5.21537,988
5.22013,1011
5.2249,1448
5.22965,1234
5.23442,1003
5.23918,1219
5.24395,1166
5.2487,1230
5.25347,1262
5.25823,1407
5.26298,1523
5.26775,1359
5.27252,1074
5.27728,1236
5.28203,1805
5.2868,1214
5.29157,1271
5.29632,1037
5.30108,1403
5.30585,1250
5.31062,1388
5.31537,1231
5.32013,1646
5.3249,2315
5.32967,3594
5.33442,3089
5.33918,1423
5.34395,1235
5.3487,1190
5.35347,1157
5.35823,1388
5.363,1158
5.36775,1466
5.37252,1245
5.37728,2011
5.38203,1346
5.3868,1227
5.39157,1499
5.39633,1229
5.40108,1127
5.40585,1323
5.41062,1400
5.41537,1309
5.42013,1135
5.4249,1105
5.42967,1122
5.43442,1230
5.43918,1108
5.44395,1433
5.4487,1384
5.45347,1509
5.45823,1635
5.463,1358
5.46775,1446
5.47252,1361
5.47728,1334
5.48203,1467
5.4868,915
5.49157,1764
5.49633,2302
5.50108,2973
5.50585,2722
5.51062,1540
5.51538,1425
5.52013,1303
5.5249,1393
5.52967,1489
5.53442,1264
5.53918,1189
5.54395,1153
5.54872,1283
5.55347,2332
5.55823,1428
5.563,1387
5.56775,1358
5.57252,1528
5.57728,1701
5.58205,1317
5.5868,1497
5.59157,1454
5.59633,1486
5.60108,1425
5.60585,1622
5.61062,1449
5.61538,1369
5.62013,1325
5.6249,1339
5.62967,1279
5.63442,1608
5.63918,1416
5.64395,1361
5.64872,1017
5.65347,1285
5.65823,1696
5.663,1329
5.66777,1304
5.67252,1385
5.67728,1510
5.68205,1465
5.6868,1366
5.69157,1418
5.69633,1413
5.7011,1535
5.70585,1798
5.71062,1768
5.71538,1511
5.72013,1598
5.7249,1802
5.72967,1682
5.73443,1432
5.73918,1585
5.74395,1435
5.74872,1392
5.75347,1598
5.75823,1762
5.763,2296
5.76777,1565
5.77252,1555
5.77728,1697
5.78205,1348
5.7868,1638
5.79157,1641
5.79633,1617
5.8011,3172
5.80585,3014
5.81062,2237
5.81538,1942
5.82013,1560
5.8249,1589
5.82967,1437
5.83443,1508
5.83918,1577
5.84395,1606
5.84872,1019
5.85348,1358
5.85823,1642
5.863,1114
5.86777,1512
5.87252,1515
5.87728,1663
5.88205,1558
5.88682,1448
5.89157,1699
5.89633,1758
5.9011,1436
5.90585,1839
5.91062,1725
5.91538,1370
5.92015,1446
5.9249,1224
5.92967,1772
5.93443,1607
5.93918,1516
5.94395,1523
5.94872,1651
5.95348,1712
5.95823,2594
5.963,3964
5.96777,3141
5.97252,3094
5.97728,1483
5.98205,1604
5.98682,2224
5.99157,2068
5.99633,1662
6.0011,1767
6.00585,1973
6.01062,1667
6.01538,1903
6.02015,1836
6.0249,1566
6.02967,1660
6.03443,1431
6.0392,1540
6.04395,1600
6.04872,1640
6.05348,1769
6.05823,1480
6.063,1875
6.06777,1480
6.07253,1710
6.07728,1732
6.08205,1802
6.08682,1681
6.09157,1606
6.09633,1659
6.1011,1629
6.10587,1699
6.11062,1696
6.11538,1513
6.12015,1744
6.1249,1795
6.12967,1506
6.13443,1990
6.1392,1607
6.14395,1757
6.14872,1756
6.15348,1704
6.15823,1614
6.163,1818
6.16777,2036
6.17253,1794
6.17728,2124
6.18205,2241
6.18682,1862
6.19158,1633
6.19633,1876
6.2011,2290
6.20587,1680
6.21062,2541
6.21538,1365
6.22015,1906
6.22492,2484
6.22967,3248
6.23443,3497
6.2392,2972
6.24395,2180
6.24872,2280
6.25348,1671
6.25825,2180
6.263,2341
6.26777,1752
6.27253,2134
6.27728,1649
6.28205,1885
6.28682,2266
6.29158,1621
6.29633,1966
6.3011,2015
6.30587,1664
6.31062,2231
6.31538,2224
6.32015,1926
6.32492,1899
6.32967,2520
6.33443,2336
6.3392,2426
6.34395,2374
6.34872,1985
6.35348,2064
6.35825,2039
6.363,1614
6.36777,2111
6.37253,1842
6.3773,2362
6.38205,2542
6.38682,3799
6.39158,5010
6.39633,3979
6.4011,2992
6.40587,2601
6.41063,2550
6.41538,2533
6.42015,2655
6.42492,2566
6.42967,2261
6.43443,2697
6.4392,2326
6.44397,2383
6.44872,2631
6.45348,2195
6.45825,2539
6.463,2416
6.46777,2451
6.47253,2578
6.4773,1962
6.48205,2281
6.48682,3991
6.49158,49655
6.49633,386274
6.5011,2439816
6.50587,7124407
6.51063,6869853
6.51538,2200318
6.52015,709973
6.52492,351259
6.52968,221702
6.53443,158792
6.5392,124283
6.54397,98033
6.54872,78514
6.55348,66397
6.55825,56659
6.56302,49507
6.56777,43224
6.57253,39761
6.5773,35246
6.58205,31042
6.58682,26377
6.59158,25920
6.59635,22065
6.6011,23072
6.60587,20367
6.61063,17756
6.61538,18985
6.62015,17212
6.62492,18151
6.62968,16717
6.63443,14923
6.6392,14103
6.64397,13062
6.64872,12823
6.65348,10712
6.65825,11292
6.66302,11886
6.66777,10609
6.67253,10134
6.6773,11038
6.68205,8685
6.68682,9513
6.69158,8642
6.69635,8848
6.7011,9222
6.70587,8763
6.71063,6715
6.7154,6375
6.72015,6726
6.72492,9117
6.72968,7097
6.73443,7609
6.7392,6647
6.74397,7209
6.74873,7403
6.75348,6994
6.75825,6776
6.76302,6632
6.76777,6421
6.77253,6460
6.7773,6431
6.78207,7227
6.78682,8010
6.79158,6829
6.79635,6669
6.8011,5409
6.80587,6326
6.81063,5348
6.8154,4984
6.82015,5751
6.82492,5531
6.82968,5374
6.83443,5704
6.8392,5270
6.84397,5741
6.84873,4969
6.85348,5361
6.85825,5858
6.86302,5056
6.86778,5111
6.87253,6086
6.8773,5042
6.88207,5521
6.88682,5293
6.89158,6073
6.89635,5678
6.90112,4148
6.90587,5793
6.91063,4606
6.9154,5231
6.92015,5092
6.92492,4942
6.92968,5140
6.93445,4880
6.9392,5041
6.94397,5277
6.94873,5200
6.95348,5999
6.95825,5071
6.96302,6424
6.96778,4853
6.97253,5589
6.9773,5407
6.98207,5506
6.98682,5184
6.99158,5679
6.99635,4722
7.00112,4838
7.00587,5774
7.01063,5389
7.0154,6500
7.02015,7243
7.02492,6457
7.02968,5732
7.03445,5118
7.0392,4678
7.04397,5159
7.04873,5040
7.0535,5202
7.05825,5447
7.06302,5094
7.06778,5238
7.07253,5049
7.0773,4979
7.08207,4601
7.08683,4981
7.09158,5248
7.09635,5121
7.10112,4806
7.10587,5040
7.11063,4201
7.1154,4932
7.12017,5005
7.12492,5573
7.12968,5973
7.13445,5248
7.1392,5844
7.14397,5060
7.14873,5842
7.1535,4919
7.15825,4763
7.16302,5385
7.16778,5062
7.17253,4939
7.1773,4838
7.18207,6154
7.18683,5814
7.19158,4605
7.19635,4985
7.20112,5535
7.20587,6469
7.21063,6689
7.2154,6455
7.22017,5834
7.22492,5606
7.22968,6365
7.23445,5405
7.23922,5586
7.24397,5140
7.24873,4987
7.2535,5153
7.25825,5235
7.26302,5238
7.26778,5873
7.27255,5916
7.2773,5537
7.28207,5287
7.28683,6237
7.29158,5259
7.29635,4793
7.30112,4658
7.30588,4831
7.31063,5688
7.3154,5243
7.32017,5235
7.32492,4932
7.32968,4549
7.33445,5118
7.33922,4371
7.34397,5311
7.34873,5449
7.3535,5532
7.35825,4478
7.36302,5466
7.36778,5311
7.37255,4936
7.3773,5189
7.38207,5733
7.38683,4907
7.3916,5402
7.39635,4498
7.40112,4751
7.40588,5103
7.41063,5277
7.4154,4288
7.42017,4470
7.42493,5634
7.42968,5698
7.43445,5260
7.43922,5078
7.44397,4921
7.44873,5416
7.4535,4093
7.45827,4769
7.46302,5913
7.46778,5301
7.47255,6205
7.4773,7117
7.48207,5876
7.48683,5823
7.4916,6312
7.49635,5739
7.50112,4961
7.50588,4958
7.51063,5665
7.5154,5692
7.52017,4857
7.52493,5218
7.52968,6002
7.53445,4951
7.53922,5166
7.54397,5195
7.54873,4834
7.5535,5538
7.55827,5206
7.56302,4746
7.56778,5435
7.57255,5807
7.57732,4902
7.58207,4884
7.58683,4429
7.5916,4867
7.59635,5477
7.60112,4826
7.60588,5506
7.61065,6300
7.6154,5049
7.62017,5394
7.62493,6437
7.62968,5402
7.63445,4893
7.63922,5342
7.64398,5256
7.64873,4499
7.6535,5414
7.65827,4874
7.66302,6053
7.66778,4841
7.67255,4536
7.67732,5282
7.68207,5355
7.68683,4706
7.6916,5291
7.69635,5201
7.70112,5584
7.70588,5542
7.71065,5772
7.7154,5787
7.72017,6045
7.72493,4888
7.7297,5412
7.73445,7097
7.73922,5340
7.74398,5717
7.74873,4972
7.7535,5691
7.75827,5458
7.76303,4901
7.76778,5390
7.77255,5241
7.77732,5263
7.78207,4792
7.78683,4644
7.7916,5262
7.79637,5464
7.80112,5224
7.80588,5319
7.81065,5730
7.8154,6214
7.82017,5045
7.82493,5107
7.8297,5547
7.83445,5265
7.83922,4949
7.84398,5442
7.84873,4852
7.8535,5468
7.85827,5010
7.86303,4648
7.86778,5168
7.87255,5586
7.87732,5210
7.88207,5232
7.88683,5380
7.8916,5194
7.89637,5478
7.90112,4558
7.90588,5557
7.91065,5339
7.91542,5410
7.92017,4560
7.92493,5015
7.9297,5469
7.93445,5576
7.93922,5835
7.94398,5215
7.94875,5834
7.9535,5519
7.95827,4714
7.96303,4685
7.96778,4826
7.97255,5767
7.97732,5281
7.98208,5541
7.98683,5464
7.9916,5540
7.99637,5163
8.00112,5749
8.00588,5471
8.01065,5819
8.01542,5530
8.02017,6217
8.02493,6492
8.0297,5253
8.03445,5973
8.03922,5516
8.04398,4788
8.04875,5535
8.0535,5245
8.05827,5541
8.06303,5339
8.0678,5698
8.07255,5062
8.07732,6066
8.08208,5730
8.08683,5342
8.0916,5080
8.09637,5961
8.10113,5239
8.10588,5897
8.11065,4709
8.11542,5305
8.12017,4828
8.12493,5512
8.1297,5107
8.13447,4684
8.13922,5247
8.14398,4704
8.14875,6313
8.1535,6706
8.15827,5186
8.16303,5126
8.1678,4664
8.17255,4679
8.17732,5594
8.18208,5150
8.18683,4638
8.1916,6092
8.19637,5178
8.20113,4891
8.20588,5095
8.21065,5388
8.21542,5178
8.22017,6033
8.22493,5050
8.2297,6164
8.23447,5218
8.23922,5228
8.24398,5009
8.24875,5147
8.25352,5183
8.25827,5539
8.26303,5361
8.2678,5470
8.27255,5891
8.27732,5626
8.28208,5683
8.28685,5413
8.2916,5548
8.29637,5285
8.30113,4812
8.30588,5324
8.31065,4886
8.31542,4837
8.32018,5402
8.32493,5223
8.3297,6036
8.33447,5727
8.33922,4705
8.34398,6364
8.34875,5235
8.35352,5470
8.35827,6202
8.36303,6224
8.3678,5598
8.37255,5016
8.37732,5684
8.38208,4978
8.38685,4664
8.3916,5812
8.39637,5792
8.40113,5369
8.40588,5139
8.41065,6033
8.41542,5224
8.42018,5014
8.42493,5130
8.4297,6104
8.43447,5379
8.43923,5613
8.44398,6079
8.44875,5195
8.45352,5187
8.45827,5333
8.46303,4520
8.4678,4875
8.47257,6025
8.47732,4530
8.48208,5654
8.48685,4895
8.4916,5538
8.49637,4924
8.50113,4849
8.5059,4650
8.51065,4759
8.51542,6044
8.52018,5223
8.52493,5447
8.5297,5132
8.53447,5599
8.53923,5186
8.54398,5126
8.54875,5287
8.55352,6279
8.55827,5328
8.56303,5559
8.5678,5268
8.57257,5365
8.57732,6019
8.58208,5506
8.58685,6238
8.59162,5206
8.59637,5479
8.60113,5561
8.6059,4907
8.61065,5479
8.61542,5105
8.62018,4609
8.62495,5718
8.6297,5215
8.63447,4810
8.63923,5025
8.64398,5427
8.64875,4989
8.65352,5387
8.65828,5189
8.66303,5272
8.6678,5624
8.67257,4696
8.67732,5989
8.68208,6066
8.68685,5640
8.69162,4839
8.69637,5558
8.70113,5494
8.7059,5706
8.71065,6000
8.71542,4955
8.72018,6273
8.72495,6262
8.7297,5049
8.73447,5378
8.73923,5698
8.74398,5689
8.74875,5494
8.75352,5898
8.75828,5548
8.76303,5925
8.7678,5655
8.77257,5753
8.77733,5599
8.78208,4799
8.78685,4846
8.79162,4303
8.79637,5303
8.80113,4838
8.8059,5110
8.81067,6467
8.81542,5702
8.82018,5133
8.82495,4907
8.8297,4934
8.83447,5308
8.83923,5274
8.844,5196
8.84875,5540
8.85352,5048
8.85828,5529
8.86303,6058
8.8678,5378
8.87257,5710
8.87733,5397
8.88208,5623
8.88685,5689
8.89162,5321
8.89637,5309
8.90113,5313
8.9059,4491
8.91067,4714
8.91542,5179
8.92018,5923
8.92495,5345
8.92972,4955
8.93447,4998
8.93923,5376
8.944,5245
8.94875,5711
8.95352,5102
8.95828,6129
8.96305,5112
8.9678,5292
8.97257,5538
8.97733,5206
8.98208,5685
8.98685,5369
8.99162,5702
8.99638,4974
9.00113,6121
9.0059,4781
9.01067,5482
9.01542,4803
9.02018,4755
9.02495,6899
9.02972,5786
9.03447,4849
9.03923,5146
9.044,4894
9.04875,5587
9.05352,4803
9.05828,4459
9.06305,6389
9.0678,5213
9.07257,4995
9.07733,5299
9.08208,4905
9.08685,5379
9.09162,4783
9.09638,6339
9.10113,5014
9.1059,4756
9.11067,6018
9.11543,4974
9.12018,5432
9.12495,5146
9.12972,5879
9.13447,5441
9.13923,5065
9.144,5164
9.14877,4984
9.15352,5398
9.15828,5501
9.16305,5895
9.1678,5706
9.17257,4825
9.17733,5806
9.1821,5691
9.18685,5819
9.19162,5923
9.19638,5350
9.20113,5434
9.2059,5260
9.21067,5741
9.21543,5888
9.22018,5490
9.22495,5415
9.22972,5049
9.23447,4434
9.23923,5759
9.244,5305
9.24877,5710
9.25352,5405
9.25828,5596
9.26305,4955
9.26782,5244
9.27257,4486
9.27733,4967
9.2821,5412
9.28685,5165
9.29162,5973
9.29638,5565
9.30115,5307
9.3059,5394
9.31067,5521
9.31543,5123
9.32018,4924
9.32495,5642
9.32972,5529
9.33448,5021
9.33923,5219
9.344,5405
9.34877,4727
9.35352,4979
9.35828,5348
9.36305,5704
9.36782,5478
9.37257,5603
9.37733,5664
9.3821,5371
9.38685,5016
9.39162,5545
9.39638,4633
9.40115,4940
9.4059,4660
9.41067,5248
9.41543,5191
9.42018,5248
9.42495,5623
9.42972,5085
9.43448,5319
9.43923,5426
9.444,4854
9.44877,5109
9.45353,5745
9.45828,4798
9.46305,4561
9.46782,4897
9.47257,5401
9.47733,5362
9.4821,4513
9.48687,5584
9.49162,4036
9.49638,5547
9.50115,4554
9.5059,4700
9.51067,5029
9.51543,5633
9.5202,5730
9.52495,5523
9.52972,5784
9.53448,5075
9.53923,5125
9.544,5142
9.54877,4869
9.55353,5846
9.55828,5650
9.56305,4525
9.56782,5682
9.57257,5479
9.57733,4529
9.5821,4784
9.58687,4518
9.59162,4898
9.59638,5798
9.60115,5477
9.6059,5466
9.61067,5964
9.61543,6642
9.6202,6239
9.62495,4528
9.62972,5503
9.63448,5572
9.63925,4969
9.644,5377
9.64877,5089
9.65353,5402
9.65828,4908
9.66305,5235
9.66782,5711
9.67258,5520
9.67733,5208
9.6821,4678
9.68687,5818
9.69162,5493
9.69638,4756
9.70115,4774
9.70592,5053
9.71067,4826
9.71543,5812
9.7202,6418
9.72495,5011
9.72972,5001
9.73448,5263
9.73925,5555
9.744,5208
9.74877,5291
9.75353,5095
9.75828,5924
9.76305,5271
9.76782,5617
9.77258,5575
9.77733,4808
9.7821,6265
9.78687,5368
9.79163,5605
9.79638,4791
9.80115,4871
9.80592,5100
9.81067,5701
9.81543,5327
9.8202,5404
9.82497,5231
9.82972,5653
9.83448,5450
9.83925,4592
9.844,5239
9.84877,4930
9.85353,5232
9.8583,5749
9.86305,4951
9.86782,5091
9.87258,5163
9.87733,5279
9.8821,5892
9.88687,5379
9.89163,5840
9.89638,4483
9.90115,5208
9.90592,5129
9.91067,6159
9.91543,5370
9.9202,5031
9.92497,5732
9.92972,4668
9.93448,5101
9.93925,5382
9.944,5492
9.94877,5370
9.95353,5222
9.9583,5503
9.96305,5013
9.96782,4935
9.97258,5173
9.97735,5509
9.9821,5273
9.98687,5122
9.99163,4873
9.99638,4780
10.0012,5942
10.0059,5089
10.0107,5128
10.0154,5877
10.0202,5218
10.025,5397
10.0297,5748
10.0345,5857
10.0393,5152
10.044,4860
10.0488,4763
10.0535,4668
10.0583,5231
10.0631,5353
10.0678,5463
10.0726,5430
10.0774,5174
10.0821,4279
10.0869,4522
10.0916,5270
10.0964,5059
10.1012,4903
10.1059,5134
10.1107,5375
10.1154,4442
10.1202,5813
10.125,5081
10.1297,5064
10.1345,5115
10.1393,5278
10.144,5693
10.1488,5224
10.1535,5592
10.1583,4205
10.1631,4747
10.1678,5211
10.1726,5004
10.1774,5180
10.1821,5412
10.1869,5205
10.1916,5024
10.1964,5314
10.2012,5540
10.2059,4891
10.2107,6106
10.2154,5349
10.2202,4871
10.225,5251
10.2297,5128
10.2345,5158
10.2393,5676
10.244,6105
10.2488,5015
10.2535,5687
10.2583,5101
10.2631,5561
10.2678,5018
10.2726,5893
10.2774,5168
10.2821,5697
10.2869,6036
10.2916,5147
10.2964,4934
10.3012,5613
10.3059,4847
10.3107,5016
10.3155,5257
10.3202,5245
10.325,5213
10.3297,4806
10.3345,5961
10.3393,5437
10.344,5019
10.3488,5524
10.3535,5126
10.3583,5148
10.3631,5699
10.3678,5090
10.3726,5749
10.3774,6116
10.3821,5419
10.3869,5165
10.3916,5238
10.3964,5122
10.4012,5477
10.4059,4763
10.4107,5121
10.4155,5663
10.4202,5871
10.425,4536
10.4297,5554
10.4345,4701
10.4393,5585
10.444,5122
10.4488,4992
10.4535,4890
10.4583,5644
10.4631,5791
10.4678,4689
10.4726,5434
10.4774,5225
10.4821,5286
10.4869,5236
10.4916,5087
10.4964,6206
10.5012,4726
10.5059,5561
10.5107,5153
10.5155,5135
10.5202,5095
10.525,5691
10.5297,4794
10.5345,5083
10.5393,5153
10.544,5650
10.5488,5173
10.5535,5341
10.5583,5148
10.5631,5102
10.5678,5828
10.5726,5065
10.5774,5147
10.5821,4616
10.5869,6016
10.5916,5262
10.5964,5167
10.6012,5394
10.6059,4801
10.6107,5450
10.6155,6310
10.6202,4674
10.625,5478
10.6297,4701
10.6345,5415
10.6393,4830
10.644,5104
10.6488,5039
10.6536,4925
10.6583,4871
10.6631,4144
10.6678,5901
10.6726,5905
10.6774,5373
10.6821,5504
10.6869,5125
10.6916,4253
10.6964,5752
10.7012,5539
10.7059,5150
10.7107,5268
10.7155,5871
10.7202,5135
10.725,5045
10.7297,5225
10.7345,5322
10.7393,4594
10.744,4541
10.7488,5255
10.7536,4885
10.7583,4903
10.7631,5313
10.7678,5744
10.7726,5739
10.7774,4958
10.7821,4435
10.7869,5689
10.7916,5375
10.7964,5224
10.8012,4272
10.8059,5328
10.8107,4415
10.8155,5342
10.8202,5897
10.825,5175
10.8297,5902
10.8345,5559
10.8393,5379
10.844,5055
10.8488,5022
10.8536,5437
10.8583,5039
10.8631,5095
10.8678,5093
10.8726,4674
10.8774,4720
10.8821,5040
10.8869,4990
10.8916,5010
10.8964,4908
10.9012,5423
10.9059,5090
10.9107,5114
10.9155,5438
10.9202,5016
10.925,5361
10.9297,4596
10.9345,4492
10.9393,5813
10.944,5378
10.9488,5240
10.9536,5262
10.9583,5374
10.9631,5519
10.9678,4864
10.9726,5028
10.9774,4437
10.9821,4754
10.9869,5365
10.9917,4270
10.9964,5138
11.0012,4298
11.0059,4992
11.0107,5233
11.0155,5443
11.0202,4782
11.025,5089
11.0297,4991
11.0345,4748
11.0393,4881
11.044,5637
11.0488,4915
11.0536,4942
11.0583,5434
11.0631,5565
11.0678,4956
11.0726,5669
11.0774,5843
11.0821,5778
11.0869,5637
11.0917,5065
11.0964,5363
11.1012,4943
11.1059,4988
11.1107,5612
11.1155,4772
11.1202,4903
11.125,5311
11.1297,3974
11.1345,4154
11.1393,4521
11.144,5007
11.1488,4868
11.1536,4991
11.1583,4410
11.1631,5085
11.1678,4876
11.1726,5015
11.1774,5492
11.1821,5059
11.1869,4630
11.1917,5238
11.1964,5246
11.2012,4840
11.2059,5192
11.2107,5208
11.2155,6048
11.2202,5201
11.225,4422
11.2297,5252
11.2345,5465
11.2393,5034
11.244,5246
11.2488,4566
11.2536,5015
11.2583,4504
11.2631,6429
11.2678,5033
11.2726,5198
11.2774,5622
11.2821,5050
11.2869,5371
11.2917,5382
11.2964,5730
11.3012,6507
11.3059,5079
11.3107,5120
11.3155,5510
11.3202,5295
11.325,4766
11.3298,5509
11.3345,4505
11.3393,5415
11.344,5764
11.3488,4847
11.3536,4933
11.3583,5053
11.3631,4573
11.3678,5203
11.3726,4764
11.3774,5319
11.3821,4879
11.3869,5344
11.3917,4982
11.3964,5202
11.4012,5601
11.4059,4845
11.4107,4756
11.4155,4079
11.4202,5240
11.425,4885
11.4298,5060
11.4345,5371
11.4393,5114
11.444,5441
11.4488,5060
11.4536,5407
11.4583,4751
11.4631,5195
11.4678,4483
11.4726,5190
11.4774,4657
11.4821,4362
11.4869,5167
11.4917,6004
11.4964,5068
11.5012,5207
11.5059,5357
11.5107,4459
11.5155,5600
11.5202,5263
11.525,5770
11.5298,6729
11.5345,5385
11.5393,5561
11.544,4864
11.5488,5821
11.5536,5014
11.5583,6159
11.5631,5465
11.5678,4852
11.5726,5835
11.5774,5377
11.5821,4931
11.5869,5171
11.5917,4255
11.5964,5340
11.6012,5139
11.6059,5164
11.6107,5199
11.6155,5688
11.6202,4318
11.625,5624
11.6298,5167
11.6345,5428
11.6393,5054
11.644,4774
11.6488,4614
11.6536,5549
11.6583,4490
11.6631,5141
11.6679,5149
11.6726,5610
11.6774,5162
11.6821,4674
11.6869,4536
11.6917,5202
11.6964,4906
11.7012,5634
11.7059,5414
11.7107,5259
11.7155,4933
11.7202,5591
11.725,4364
11.7298,5059
11.7345,5148
11.7393,5016
11.744,4620
11.7488,5637
11.7536,4979
11.7583,5232
11.7631,4416
11.7679,4487
11.7726,4979
11.7774,5498
11.7821,4988
11.7869,5358
11.7917,4656
11.7964,5080
11.8012,5195
11.8059,5139
11.8107,5302
11.8155,5262
11.8202,5418
11.825,5703
11.8298,5386
11.8345,4746
11.8393,4964
11.844,4929
11.8488,4915
11.8536,4826
11.8583,4831
11.8631,5447
11.8679,4964
11.8726,5203
11.8774,5720
11.8821,4590
11.8869,5778
11.8917,4920
11.8964,4716
11.9012,5206
11.9059,5339
11.9107,5702
11.9155,5275
11.9202,4855
11.925,4724
11.9298,4707
11.9345,4760
11.9393,5488
11.944,4366
11.9488,5866
11.9536,4740
11.9583,4333
11.9631,5063
11.9679,5020
11.9726,5560
11.9774,5243
11.9821,5649
11.9869,4957
11.9917,5415
11.9964,4852
12.0012,4991
12.006,5461
12.0107,5403
12.0155,4904
12.0202,6332
12.025,4139
12.0298,5063
12.0345,5711
12.0393,4562
12.044,4820
12.0488,5432
12.0536,5150
12.0583,5077
12.0631,5092
12.0679,4496
12.0726,5741
12.0774,4952
12.0821,5638
12.0869,5020
12.0917,5265
12.0964,5036
12.1012,4969
12.106,4304
12.1107,5403
12.1155,4600
12.1202,5233
12.125,5390
12.1298,5078
12.1345,4755
12.1393,5409
12.144,5398
12.1488,5034
12.1536,4907
12.1583,5070
12.1631,5147
12.1679,4917
12.1726,5155
12.1774,5515
12.1821,5489
12.1869,5207
12.1917,4869
12.1964,5499
12.2012,5687
12.206,5639
12.2107,4809
12.2155,4912
12.2202,4789
12.225,5868
12.2298,4809
12.2345,5782
12.2393,5388
12.244,5261
12.2488,5081
12.2536,5957
12.2583,5328
12.2631,4984
12.2679,4919
12.2726,5357
12.2774,4439
12.2821,5504
12.2869,5098
12.2917,5658
12.2964,5102
12.3012,5015
12.306,4907
12.3107,5024
12.3155,5850
12.3202,6089
12.325,5756
12.3298,6149
12.3345,4877
12.3393,5767
12.3441,5119
12.3488,5356
12.3536,5510
12.3583,5398
12.3631,5099
12.3679,5002
12.3726,5411
12.3774,5151
12.3821,4883
12.3869,5528
12.3917,5283
12.3964,5453
12.4012,5559
12.406,5427
12.4107,5116
12.4155,5034
12.4202,6083
12.425,5311
12.4298,5172
12.4345,5332
12.4393,6065
12.4441,5042
12.4488,4931
12.4536,5424
12.4583,4696
12.4631,5677
12.4679,5213
12.4726,4598
12.4774,4982
12.4821,5090
12.4869,4923
12.4917,5342
12.4964,4766
12.5012,4917
12.506,4650
12.5107,5602
12.5155,5129
12.5202,5606
12.525,5933
12.5298,5170
12.5345,5155
12.5393,4796
12.5441,5546
12.5488,4079
12.5536,5191
12.5583,4747
12.5631,5921
12.5679,5794
12.5726,4328
12.5774,5772
12.5821,5889
12.5869,5361
12.5917,5409
12.5964,4822
12.6012,4477
12.606,5572
12.6107,5440
12.6155,5506
12.6202,5224
12.625,5321
12.6298,4668
12.6345,4556
12.6393,4881
12.6441,4886
12.6488,5165
12.6536,5171
12.6583,4879
12.6631,5385
12.6679,5704
12.6726,4887
12.6774,4815
12.6821,5314
12.6869,5190
12.6917,5199
12.6964,4831
12.7012,4521
12.706,5325
12.7107,4714
12.7155,4874
12.7202,5470
12.725,5002
12.7298,5064
12.7345,5227
12.7393,4857
12.7441,5038
12.7488,4684
12.7536,5327
12.7583,5125
12.7631,5641
12.7679,5420
12.7726,4986
12.7774,5675
12.7822,4723
12.7869,5238
12.7917,3860
12.7964,5030
12.8012,5341
12.806,4683
12.8107,4735
12.8155,5173
12.8202,4732
12.825,5637
12.8298,4674
12.8345,5328
12.8393,4992
12.8441,5777
12.8488,5027
12.8536,5512
12.8583,5151
12.8631,5201
12.8679,5153
12.8726,5885
12.8774,4910
12.8822,4963
12.8869,4867
12.8917,5753
12.8964,5683
12.9012,5316
12.906,5338
12.9107,5860
12.9155,5240
12.9202,5390
12.925,5831
12.9298,6000
12.9345,4949
12.9393,4579
12.9441,4678
12.9488,5388
12.9536,5223
12.9583,4164
12.9631,4471
12.9679,5007
12.9726,5291
12.9774,4820
12.9822,5316
12.9869,5423
12.9917,5024
12.9964,5031
13.0012,4883
13.006,5056
13.0107,6066
13.0155,5505
13.0202,4931
13.025,5847
13.0298,5433
13.0345,4871
13.0393,5153
13.0441,5905
13.0488,5289
13.0536,5102
13.0583,5444
13.0631,4760
13.0679,5346
13.0726,4663
13.0774,4938
13.0822,5318
13.0869,4910
13.0917,4979
13.0964,5048
13.1012,4789
13.106,5307
13.1107,5189
13.1155,5404
13.1203,5181
13.125,5089
13.1298,5199
13.1345,4697
13.1393,4927
13.1441,5373
13.1488,5325
13.1536,6113
13.1583,4785
13.1631,5658
13.1679,5013
13.1726,5097
13.1774,5903
13.1822,4722
13.1869,4814
13.1917,5269
13.1964,4824
13.2012,5764
13.206,4937
13.2107,5366
13.2155,4984
13.2203,5494
13.225,5330
13.2298,5214
13.2345,5377
13.2393,5332
13.2441,4857
13.2488,5549
13.2536,6287
13.2583,4842
13.2631,5546
13.2679,4351
13.2726,5042
13.2774,5206
13.2822,5794
13.2869,5378
13.2917,5315
13.2964,5483
13.3012,5203
13.306,5130
13.3107,5574
13.3155,4028
13.3203,4502
13.325,4812
13.3298,5153
13.3345,5994
13.3393,5017
13.3441,4879
13.3488,5649
13.3536,5072
13.3583,4996
13.3631,4898
13.3679,5292
13.3726,5206
13.3774,5381
13.3822,5342
13.3869,5816
13.3917,5044
13.3964,4560
13.4012,5599
13.406,5299
13.4107,5105
13.4155,5714
13.4203,5231
13.425,4382
13.4298,4957
13.4345,5476
13.4393,5676
13.4441,5047
13.4488,5111
13.4536,5458
13.4584,5804
13.4631,4414
13.4679,5095
13.4726,4952
13.4774,4650
13.4822,5170
13.4869,5230
13.4917,5908
13.4964,5451
13.5012,5500
13.506,5263
13.5107,5156
13.5155,4905
13.5203,5363
13.525,6222
13.5298,5002
13.5345,5324
13.5393,5859
13.5441,5931
13.5488,5216
13.5536,6462
13.5584,5819
13.5631,4566
13.5679,5146
13.5726,5295
13.5774,5305
13.5822,4672
13.5869,5611
13.5917,5211
13.5964,4931
13.6012,5587
13.606,5457
13.6107,5071
13.6155,5390
13.6203,4436
13.625,5344
13.6298,4628
13.6345,4612
13.6393,5009
13.6441,5493
13.6488,5904
13.6536,4407
13.6584,4850
13.6631,5595
13.6679,4060
13.6726,5244
13.6774,4604
13.6822,5460
13.6869,5125
13.6917,5110
13.6964,5113
13.7012,5214
13.706,5075
13.7107,4389
13.7155,5536
13.7203,4458
13.725,4845
13.7298,4830
13.7345,5804
13.7393,4582
13.7441,5634
13.7488,5182
13.7536,5651
13.7584,5377
13.7631,5017
13.7679,5618
13.7726,4189
13.7774,5336
13.7822,5514
13.7869,5063
13.7917,6288
13.7965,5365
13.8012,4631
13.806,5777
13.8107,5474
13.8155,5203
13.8203,5160
13.825,5027
13.8298,4543
13.8345,5202
13.8393,5462
13.8441,5179
13.8488,5044
13.8536,5308
13.8584,4968
13.8631,5376
13.8679,4546
13.8726,5188
13.8774,5452
13.8822,5501
13.8869,5368
13.8917,4969
13.8965,5291
13.9012,5257
13.906,5492
13.9107,5269
13.9155,5240
13.9203,4153
13.925,4384
13.9298,5598
13.9345,4717
13.9393,4618
13.9441,4691
13.9488,4704
13.9536,5500
13.9584,5477
13.9631,5590
13.9679,5324
13.9726,4670
13.9774,5031
13.9822,5481
13.9869,5407
13.9917,4981
13.9965,4521
14.0012,5204
14.006,5570
14.0107,4849
14.0155,5464
14.0203,4960
14.025,5690
14.0298,4699
14.0345,4902
14.0393,5379
14.0441,5177
14.0488,5150
14.0536,5227
14.0584,4792
14.0631,4737
14.0679,5056
14.0726,5882
14.0774,5578
14.0822,5570
14.0869,4876
14.0917,5149
14.0965,5177
14.1012,5111
14.106,5097
14.1107,4951
14.1155,5359
14.1203,5983
14.125,5100
14.1298,4604
14.1346,5237
14.1393,5619
14.1441,4221
14.1488,5393
14.1536,5052
14.1584,5436
14.1631,5020
14.1679,6076
14.1726,5932
14.1774,5430
14.1822,4912
14.1869,6052
14.1917,5401
14.1965,4983
14.2012,4426
14.206,5686
14.2107,5067
14.2155,5041
14.2203,4594
14.225,4879
14.2298,5660
14.2346,4851
14.2393,4732
14.2441,4971
14.2488,5334
14.2536,5356
14.2584,4982
14.2631,4744
14.2679,4763
14.2726,5943
14.2774,5370
14.2822,4807
14.2869,4699
14.2917,5542
14.2965,5138
14.3012,5288
14.306,5313
14.3107,4825
14.3155,5310
14.3203,5278
14.325,5286
14.3298,5217
14.3346,5281
14.3393,5534
14.3441,5385
14.3488,4991
14.3536,5569
14.3584,5723
14.3631,5246
14.3679,4795
14.3726,5238
14.3774,4759
14.3822,5351
14.3869,5533
14.3917,5179
14.3965,4669
14.4012,6017
14.406,5112
14.4107,6039
14.4155,5458
14.4203,5613
14.425,4601
14.4298,5988
14.4346,5783
14.4393,4889
14.4441,5648
14.4488,4990
14.4536,5613
14.4584,5618
14.4631,5157
14.4679,6349
14.4727,5350
14.4774,4782
14.4822,4356
14.4869,4914
14.4917,5051
14.4965,5471
14.5012,5249
14.506,4062
14.5107,5654
14.5155,5412
14.5203,4943
14.525,5528
14.5298,5834
14.5346,5217
14.5393,5339
14.5441,5397
14.5488,5053
14.5536,4773
14.5584,4864
14.5631,4865
14.5679,5126
14.5727,5412
14.5774,4852
14.5822,6110
14.5869,4550
14.5917,5027
14.5965,5650
14.6012,5224
14.606,5428
14.6107,5089
14.6155,5496
14.6203,5122
14.625,5077
14.6298,5237
14.6346,4632
14.6393,5398
14.6441,5610
14.6488,4859
14.6536,5011
14.6584,4689
