D:\MassHunter\GCMS\1\data\Victoria Marland\22FEB\220223011.D 23 Feb 22  05:49 pm
Start of data points
3.09157,671
3.09633,695
3.1011,709
3.10585,719
3.11062,714
3.11538,652
3.12013,528
3.1249,655
3.12967,502
3.13443,615
3.13918,662
3.14395,933
3.14872,854
3.15347,1016
3.15823,746
3.163,640
3.16777,937
3.17252,1698
3.17728,522
3.18205,730
3.1868,667
3.19157,807
3.19633,776
3.2011,763
3.20585,780
3.21062,902
3.21538,1258
3.22013,664
3.2249,928
3.22967,607
3.23443,656
3.23918,771
3.24395,821
3.24872,692
3.25348,809
3.25823,747
3.263,722
3.26777,918
3.27252,838
3.27728,722
3.28205,644
3.28682,982
3.29157,674
3.29633,950
3.3011,635
3.30585,633
3.31062,811
3.31538,819
3.32015,819
3.3249,864
3.32967,529
3.33443,800
3.33918,717
3.34395,938
3.34872,848
3.35348,654
3.35823,496
3.363,677
3.36777,928
3.37252,769
3.37728,556
3.38205,766
3.38682,735
3.39157,1015
3.39633,659
3.4011,713
3.40587,764
3.41062,774
3.41538,798
3.42015,858
3.4249,787
3.42967,764
3.43443,756
3.4392,764
3.44395,806
3.44872,899
3.45348,677
3.45823,673
3.463,853
3.46777,792
3.47253,649
3.47728,694
3.48205,852
3.48682,757
3.49157,562
3.49633,987
3.5011,763
3.50587,774
3.51062,772
3.51538,1354
3.52015,2227
3.5249,5043
3.52967,4890
3.53443,1681
3.5392,623
3.54395,898
3.54872,783
3.55348,623
3.55823,1012
3.563,524
3.56777,963
3.57253,694
3.57728,611
3.58205,693
3.58682,746
3.59158,632
3.59633,627
3.6011,715
3.60587,846
3.61062,894
3.61538,770
3.62015,698
3.62492,916
3.62967,757
3.63443,930
3.6392,749
3.64395,672
3.64872,734
3.65348,831
3.65825,725
3.663,1062
3.66777,991
3.67253,667
3.67728,824
3.68205,791
3.68682,652
3.69158,970
3.69633,718
3.7011,664
3.70587,611
3.71062,725
3.71538,857
3.72015,591
3.72492,713
3.72967,694
3.73443,592
3.7392,778
3.74395,752
3.74872,997
3.75348,735
3.75825,747
3.763,638
3.76777,887
3.77253,723
3.7773,995
3.78205,744
3.78682,832
3.79158,659
3.79633,774
3.8011,918
3.80587,783
3.81063,859
3.81538,785
3.82015,703
3.82492,783
3.82967,680
3.83443,611
3.8392,768
3.84397,920
3.84872,584
3.85348,961
3.85825,647
3.863,890
3.86777,777
3.87253,806
3.8773,812
3.88205,984
3.88682,1144
3.89158,663
3.89633,831
3.9011,661
3.90587,924
3.91063,770
3.91538,708
3.92015,937
3.92492,835
3.92968,897
3.93443,1015
3.9392,943
3.94397,804
3.94872,505
3.95348,1410
3.95825,797
3.96302,633
3.96777,621
3.97253,896
3.9773,728
3.98205,749
3.98682,931
3.99158,1061
3.99635,870
4.0011,823
4.00587,888
4.01063,878
4.01538,713
4.02015,876
4.02492,857
4.02968,619
4.03443,706
4.0392,790
4.04397,916
4.04872,923
4.05348,1083
4.05825,639
4.06302,796
4.06777,886
4.07253,832
4.0773,958
4.08205,815
4.08682,654
4.09158,737
4.09635,881
4.1011,816
4.10587,799
4.11063,762
4.1154,891
4.12015,951
4.12492,1042
4.12968,1033
4.13443,786
4.1392,989
4.14397,827
4.14873,697
4.15348,808
4.15825,777
4.16302,815
4.16777,820
4.17253,983
4.1773,684
4.18207,580
4.18682,870
4.19158,932
4.19635,1000
4.2011,759
4.20587,1220
4.21063,1504
4.2154,3319
4.22015,4509
4.22492,2567
4.22968,1007
4.23443,1164
4.2392,1074
4.24397,830
4.24873,1111
4.25348,582
4.25825,637
4.26302,797
4.26778,964
4.27253,828
4.2773,745
4.28207,1034
4.28682,851
4.29158,788
4.29635,1061
4.30112,879
4.30587,1102
4.31063,723
4.3154,847
4.32015,789
4.32492,890
4.32968,924
4.33445,994
4.3392,610
4.34397,762
4.34873,712
4.35348,800
4.35825,1000
4.36302,723
4.36778,728
4.37253,834
4.3773,1450
4.38207,700
4.38682,796
4.39158,1090
4.39635,1052
4.40112,1109
4.40587,955
4.41063,947
4.4154,814
4.42015,756
4.42492,867
4.42968,946
4.43445,863
4.4392,1024
4.44397,1065
4.44873,955
4.4535,1303
4.45825,610
4.46302,938
4.46778,763
4.47253,946
4.4773,791
4.48207,684
4.48683,928
4.49158,1020
4.49635,909
4.50112,1056
4.50587,929
4.51063,687
4.5154,826
4.52017,768
4.52492,1018
4.52968,1015
4.53445,769
4.5392,947
4.54397,964
4.54873,807
4.5535,1102
4.55825,879
4.56302,1299
4.56778,1131
4.57253,1080
4.5773,767
4.58207,763
4.58683,753
4.59158,993
4.59635,979
4.60112,964
4.60588,980
4.61063,1262
4.6154,872
4.62017,1094
4.62492,1101
4.62968,1028
4.63445,1007
4.63922,771
4.64397,1252
4.64873,900
4.6535,995
4.65825,884
4.66302,864
4.66778,1268
4.67255,813
4.6773,889
4.68207,1058
4.68683,668
4.69158,771
4.69635,923
4.70112,1063
4.70588,829
4.71063,798
4.7154,805
4.72017,672
4.72492,1060
4.72968,859
4.73445,939
4.73922,1093
4.74397,1107
4.74873,951
4.7535,1005
4.75825,754
4.76302,751
4.76778,1003
4.77255,1010
4.7773,793
4.78207,941
4.78683,866
4.7916,861
4.79635,836
4.80112,1747
4.80588,2137
4.81063,2733
4.8154,1464
4.82017,1084
4.82493,1005
4.82968,756
4.83445,876
4.83922,942
4.84397,1150
4.84873,1020
4.8535,1079
4.85827,1089
4.86302,978
4.86778,929
4.87255,898
4.8773,884
4.88207,1177
4.88683,1054
4.8916,1107
4.89635,1184
4.90112,1010
4.90588,1092
4.91063,673
4.9154,1378
4.92017,1150
4.92493,960
4.92968,1045
4.93445,1216
4.93922,1155
4.94398,1112
4.94873,1074
4.9535,927
4.95827,875
4.96302,1092
4.96778,805
4.97255,898
4.97732,1077
4.98207,1074
4.98683,1206
4.9916,1475
4.99635,1665
5.00112,909
5.00588,1171
5.01065,1159
5.0154,1320
5.02017,1295
5.02493,1330
5.02968,1027
5.03445,1263
5.03922,1054
5.04398,953
5.04873,821
5.0535,950
5.05827,1096
5.06302,1037
5.06778,975
5.07255,847
5.07732,1012
5.08207,1318
5.08683,1211
5.0916,1089
5.09635,1132
5.10112,951
5.10588,973
5.11065,1298
5.1154,1166
5.12017,944
5.12493,1173
5.1297,1276
5.13445,1348
5.13922,902
5.14398,1001
5.14873,894
5.1535,1259
5.15827,1236
5.16303,1168
5.16778,956
5.17255,1228
5.17732,1530
5.18207,1189
5.18683,967
5.1916,1161
5.19637,961
5.20112,1175
5.20588,1342
5.21065,1121
5.2154,1198
5.22017,1072
5.22493,1304
5.2297,942
5.23445,1143
5.23922,1116
5.24398,1079
5.24873,944
5.2535,1310
5.25827,1079
5.26303,1267
5.26778,999
5.27255,1267
5.27732,1092
5.28207,1198
5.28683,1169
5.2916,1232
5.29637,1280
5.30112,1011
5.30588,1088
5.31065,1169
5.31542,1539
5.32017,1213
5.32493,2082
5.3297,2381
5.33445,1926
5.33922,1045
5.34398,1370
5.34875,1260
5.3535,992
5.35827,970
5.36303,1111
5.36778,1134
5.37255,1067
5.37732,1122
5.38208,938
5.38683,1574
5.3916,1404
5.39637,1394
5.40112,1226
5.40588,1255
5.41065,1245
5.41542,1302
5.42017,1237
5.42493,1011
5.4297,1292
5.43445,1177
5.43922,1401
5.44398,1332
5.44875,1145
5.4535,1306
5.45827,1132
5.46303,1104
5.4678,1040
5.47255,1467
5.47732,1257
5.48208,1282
5.48683,1360
5.4916,1324
5.49637,1490
5.50113,2778
5.50588,2010
5.51065,1555
5.51542,1575
5.52017,1333
5.52493,1856
5.5297,1329
5.53447,1149
5.53922,1259
5.54398,1405
5.54875,2065
5.5535,1333
5.55827,1088
5.56303,1603
5.5678,1200
5.57255,1573
5.57732,1424
5.58208,1280
5.58683,1232
5.5916,1304
5.59637,1310
5.60113,1273
5.60588,1335
5.61065,1174
5.61542,1380
5.62017,1377
5.62493,1309
5.6297,1613
5.63447,1277
5.63922,1624
5.64398,1459
5.64875,1538
5.65352,1369
5.65827,1588
5.66303,1189
5.6678,1150
5.67255,1562
5.67732,1412
5.68208,1289
5.68685,1354
5.6916,1352
5.69637,1369
5.70113,1638
5.70588,1226
5.71065,1363
5.71542,1625
5.72018,1550
5.72493,1309
5.7297,1734
5.73447,1494
5.73922,1536
5.74398,1314
5.74875,1505
5.75352,1411
5.75827,1378
5.76303,1310
5.7678,1264
5.77255,1546
5.77732,1459
5.78208,1473
5.78685,1933
5.7916,1423
5.79637,1771
5.80113,2605
5.8059,2832
5.81065,1793
5.81542,1609
5.82018,1587
5.82493,1364
5.8297,1518
5.83447,1536
5.83923,1607
5.84398,1482
5.84875,1673
5.85352,1429
5.85827,1620
5.86303,1503
5.8678,1309
5.87257,1281
5.87732,1622
5.88208,1516
5.88685,1372
5.8916,1819
5.89637,1183
5.90113,1590
5.9059,1615
5.91065,1807
5.91542,1618
5.92018,1667
5.92493,1431
5.9297,1740
5.93447,1748
5.93923,1608
5.94398,1736
5.94875,1431
5.95352,1916
5.95827,1774
5.96303,2834
5.9678,2812
5.97257,1784
5.97732,1776
5.98208,1766
5.98685,1969
5.99162,1504
5.99637,1667
6.00113,1772
6.0059,1947
6.01065,2056
6.01542,2043
6.02018,1859
6.02495,1684
6.0297,1465
6.03447,1551
6.03923,1604
6.04398,1697
6.04875,1740
6.05352,1901
6.05828,1604
6.06303,1705
6.0678,2011
6.07257,1467
6.07732,1447
6.08208,1927
6.08685,1758
6.09162,1698
6.09637,1239
6.10113,1984
6.1059,1585
6.11065,2062
6.11542,1780
6.12018,1948
6.12495,1754
6.1297,1843
6.13447,1769
6.13923,1681
6.144,1877
6.14875,1589
6.15352,1775
6.15828,1678
6.16303,1574
6.1678,1951
6.17257,1829
6.17733,2032
6.18208,2063
6.18685,1801
6.19162,1622
6.19637,1630
6.20113,1956
6.2059,1702
6.21067,2328
6.21542,1763
6.22018,2008
6.22495,1971
6.2297,2723
6.23447,3108
6.23923,2504
6.244,2416
6.24875,1845
6.25352,2144
6.25828,1563
6.26303,1841
6.2678,1835
6.27257,1967
6.27733,2565
6.28208,1560
6.28685,1938
6.29162,2010
6.29637,1698
6.30113,1891
6.3059,1847
6.31067,1555
6.31542,2040
6.32018,2054
6.32495,2052
6.32972,2033
6.33447,2004
6.33923,2508
6.344,1898
6.34875,2117
6.35352,2475
6.35828,2075
6.36305,2243
6.3678,2196
6.37257,1763
6.37733,1936
6.38208,2498
6.38685,3607
6.39162,3699
6.39638,3535
6.40113,3380
6.4059,2251
6.41067,2445
6.41542,2281
6.42018,2216
6.42495,2061
6.42972,2309
6.43447,2407
6.43923,2059
6.444,2706
6.44875,2328
6.45352,1835
6.45828,2065
6.46305,2476
6.4678,2859
6.47257,2583
6.47733,2140
6.48208,3385
6.48685,3600
6.49162,38210
6.49638,344494
6.50113,2259260
6.5059,7062686
6.51067,7207351
6.51543,2401467
6.52018,710496
6.52495,350624
6.52972,220033
6.53447,149293
6.53923,116288
6.544,91281
6.54877,75667
6.55352,65752
6.55828,56388
6.56305,46204
6.5678,41852
6.57257,35905
6.57733,32852
6.5821,29047
6.58685,26763
6.59162,24668
6.59638,21897
6.60113,20604
6.6059,19191
6.61067,16538
6.61543,18307
6.62018,17322
6.62495,16755
6.62972,15499
6.63447,13859
6.63923,12756
6.644,12780
6.64877,13429
6.65352,11331
6.65828,11071
6.66305,10234
6.66782,8677
6.67257,9030
6.67733,9061
6.6821,9110
6.68685,8481
6.69162,9236
6.69638,8510
6.70115,7875
6.7059,9105
6.71067,7746
6.71543,8295
6.72018,7652
6.72495,7726
6.72972,6639
6.73448,6390
6.73923,6617
6.744,6739
6.74877,5545
6.75352,6297
6.75828,6881
6.76305,6924
6.76782,6386
6.77257,5356
6.77733,6520
6.7821,7909
6.78685,7781
6.79162,6489
6.79638,7112
6.80115,7054
6.8059,5578
6.81067,5712
6.81543,6323
6.82018,5522
6.82495,5527
6.82972,6006
6.83448,5886
6.83923,4862
6.844,5326
6.84877,5704
6.85353,6823
6.85828,5786
6.86305,5532
6.86782,5350
6.87257,5020
6.87733,5409
6.8821,5173
6.88687,4782
6.89162,5571
6.89638,5164
6.90115,6979
6.9059,6047
6.91067,4446
6.91543,4782
6.9202,4858
6.92495,5306
6.92972,4569
6.93448,5823
6.93923,4575
6.944,4609
6.94877,4536
6.95353,5617
6.95828,4892
6.96305,5285
6.96782,4687
6.97257,4394
6.97733,4913
6.9821,4714
6.98687,5320
6.99162,4758
6.99638,5266
7.00115,4444
7.00592,4895
7.01067,5204
7.01543,5557
7.0202,6214
7.02495,5536
7.02972,5184
7.03448,4876
7.03925,5187
7.044,4855
7.04877,5083
7.05353,5437
7.05828,5245
7.06305,4172
7.06782,4295
7.07258,5154
7.07733,5017
7.0821,5354
7.08687,5556
7.09162,5346
7.09638,5156
7.10115,4818
7.10592,5863
7.11067,5095
7.11543,4743
7.1202,5562
7.12495,4238
7.12972,4739
7.13448,4707
7.13925,5045
7.144,4719
7.14877,5022
7.15353,4918
7.15828,5514
7.16305,4983
7.16782,5048
7.17258,4554
7.17733,5564
7.1821,4654
7.18687,5406
7.19163,5242
7.19638,5365
7.20115,5561
7.20592,5179
7.21067,5908
7.21543,6638
7.2202,5821
7.22497,5315
7.22972,5252
7.23448,5651
7.23925,5979
7.244,5309
7.24877,5403
7.25353,5233
7.2583,5145
7.26305,5585
7.26782,5816
7.27258,5616
7.27733,4959
7.2821,4932
7.28687,5677
7.29163,4861
7.29638,5879
7.30115,5000
7.30592,5112
7.31067,5215
7.31543,5529
7.3202,5000
7.32497,5913
7.32972,5654
7.33448,4615
7.33925,4814
7.34402,4844
7.34877,5073
7.35353,4576
7.3583,5457
7.36305,4699
7.36782,5049
7.37258,4568
7.37735,5587
7.3821,4913
7.38687,5053
7.39163,5596
7.39638,5909
7.40115,5562
7.40592,5269
7.41068,5532
7.41543,5240
7.4202,5796
7.42497,5140
7.42972,5318
7.43448,4622
7.43925,5630
7.44402,4908
7.44877,5467
7.45353,5455
7.4583,4567
7.46305,5672
7.46782,6169
7.47258,5569
7.47735,6267
7.4821,5986
7.48687,5475
7.49163,5413
7.49638,5681
7.50115,4539
7.50592,5397
7.51068,5551
7.51543,5362
7.5202,5136
7.52497,4967
7.52973,6150
7.53448,5815
7.53925,5237
7.54402,5149
7.54877,5748
7.55353,4571
7.5583,5077
7.56307,5489
7.56782,5220
7.57258,5606
7.57735,4945
7.5821,5455
7.58687,5771
7.59163,5167
7.5964,5783
7.60115,5291
7.60592,5175
7.61068,6882
7.61543,5574
7.6202,4528
7.62497,5355
7.62973,5529
7.63448,5267
7.63925,5154
7.64402,4509
7.64877,6036
7.65353,6204
7.6583,5395
7.66307,6373
7.66782,4868
7.67258,5406
7.67735,5721
7.6821,6145
7.68687,5361
7.69163,5147
7.6964,5773
7.70115,5729
7.70592,4555
7.71068,6128
7.71545,6279
7.7202,6022
7.72497,6057
7.72973,5818
7.73448,4592
7.73925,5201
7.74402,6387
7.74878,5238
7.75353,5901
7.7583,5467
7.76307,4832
7.76782,5700
7.77258,5801
7.77735,5286
7.78212,5988
7.78687,5434
7.79163,4736
7.7964,5289
7.80115,5192
7.80592,5673
7.81068,5417
7.81545,5820
7.8202,4736
7.82497,5073
7.82973,5750
7.83448,5295
7.83925,5566
7.84402,5778
7.84878,5349
7.85353,5573
7.8583,5220
7.86307,5946
7.86783,5506
7.87258,5341
7.87735,5142
7.88212,4780
7.88687,6266
7.89163,5064
7.8964,4601
7.90117,5159
7.90592,5667
7.91068,6107
7.91545,5002
7.9202,5240
7.92497,5064
7.92973,4954
7.9345,5116
7.93925,4763
7.94402,5786
7.94878,5226
7.95353,5261
7.9583,5522
7.96307,4730
7.96783,5553
7.97258,5459
7.97735,5525
7.98212,6466
7.98687,5254
7.99163,5066
7.9964,5017
8.00117,5294
8.00592,5830
8.01068,5350
8.01545,5776
8.0202,5608
8.02497,6065
8.02973,5453
8.0345,5647
8.03925,5555
8.04402,4816
8.04878,5474
8.05355,5658
8.0583,5715
8.06307,5046
8.06783,5945
8.07258,5132
8.07735,5136
8.08212,5744
8.08688,5405
8.09163,4891
8.0964,5484
8.10117,4885
8.10592,5960
8.11068,5645
8.11545,5468
8.12022,4983
8.12497,5447
8.12973,5505
8.1345,6345
8.13925,5865
8.14402,5419
8.14878,6019
8.15355,5671
8.1583,5174
8.16307,5424
8.16783,5804
8.17258,5686
8.17735,5448
8.18212,5023
8.18688,6070
8.19163,5282
8.1964,6223
8.20117,5394
8.20593,5908
8.21068,5447
8.21545,5091
8.22022,6002
8.22497,5215
8.22973,5214
8.2345,5097
8.23927,5537
8.24402,5581
8.24878,6313
8.25355,5264
8.2583,5697
8.26307,5628
8.26783,5109
8.2726,4856
8.27735,6237
8.28212,4481
8.28688,5006
8.29163,5709
8.2964,4943
8.30117,5114
8.30593,5525
8.31068,5062
8.31545,5314
8.32022,5265
8.32497,5606
8.32973,5748
8.3345,5654
8.33927,5049
8.34402,5865
8.34878,5354
8.35355,5763
8.3583,5604
8.36307,5627
8.36783,5689
8.3726,5678
8.37735,5844
8.38212,5590
8.38688,5920
8.39165,5864
8.3964,5066
8.40117,5681
8.40593,6045
8.41068,4763
8.41545,4915
8.42022,4923
8.42498,5776
8.42973,5695
8.4345,4716
8.43927,5601
8.44402,6147
8.44878,5927
8.45355,5171
8.45832,4899
8.46307,5399
8.46783,5729
8.4726,5406
8.47735,4928
8.48212,5205
8.48688,4279
8.49165,4663
8.4964,5179
8.50117,5232
8.50593,6597
8.51068,5381
8.51545,6550
8.52022,6138
8.52498,5429
8.52973,4760
8.5345,5255
8.53927,6169
8.54402,6389
8.54878,5644
8.55355,5202
8.55832,5283
8.56307,5778
8.56783,5740
8.5726,4784
8.57737,5616
8.58212,5508
8.58688,5030
8.59165,4894
8.5964,5220
8.60117,5379
8.60593,5159
8.6107,6168
8.61545,5525
8.62022,5584
8.62498,5137
8.62973,5684
8.6345,5434
8.63927,5673
8.64403,6081
8.64878,6164
8.65355,5666
8.65832,5156
8.66307,5459
8.66783,5459
8.6726,5669
8.67737,4817
8.68212,5258
8.68688,4976
8.69165,5711
8.6964,5246
8.70117,4768
8.70593,4880
8.7107,5991
8.71545,5138
8.72022,5917
8.72498,5870
8.72975,5535
8.7345,5679
8.73927,5910
8.74403,5493
8.74878,6311
8.75355,4957
8.75832,5594
8.76308,5945
8.76783,5719
8.7726,5710
8.77737,5315
8.78212,5913
8.78688,6065
8.79165,6148
8.79642,5375
8.80117,4935
8.80593,5393
8.8107,5335
8.81545,5439
8.82022,5087
8.82498,5824
8.82975,5430
8.8345,5030
8.83927,5244
8.84403,5455
8.84878,5210
8.85355,5919
8.85832,5479
8.86308,5288
8.86783,5458
8.8726,5993
8.87737,5394
8.88212,6032
8.88688,5417
8.89165,5190
8.89642,5909
8.90117,5789
8.90593,6110
8.9107,5274
8.91547,5333
8.92022,5430
8.92498,5720
8.92975,5763
8.9345,4251
8.93927,5676
8.94403,5305
8.9488,4914
8.95355,5454
8.95832,5838
8.96308,5235
8.96783,5368
8.9726,5274
8.97737,4801
8.98213,5281
8.98688,5570
8.99165,4935
8.99642,5375
9.00117,5106
9.00593,5758
9.0107,5321
9.01547,4593
9.02022,5947
9.02498,5703
9.02975,5060
9.0345,5498
9.03927,4857
9.04403,5461
9.0488,5430
9.05355,4885
9.05832,5201
9.06308,6199
9.06785,5531
9.0726,5689
9.07737,5561
9.08213,5931
9.08688,4861
9.09165,5638
9.09642,4641
9.10118,5703
9.10593,6153
9.1107,5217
9.11547,4946
9.12022,6158
9.12498,5131
9.12975,5845
9.13452,5073
9.13927,5345
9.14403,4996
9.1488,5477
9.15355,5227
9.15832,5439
9.16308,5016
9.16785,6167
9.1726,4897
9.17737,4178
9.18213,5814
9.18688,5409
9.19165,5871
9.19642,5729
9.20118,5723
9.20593,5147
9.2107,5314
9.21547,4965
9.22022,5337
9.22498,5591
9.22975,5518
9.23452,5304
9.23927,5443
9.24403,5579
9.2488,5948
9.25357,5497
9.25832,4995
9.26308,6126
9.26785,5355
9.2726,5188
9.27737,5049
9.28213,5251
9.2869,5372
9.29165,5037
9.29642,5307
9.30118,5316
9.30593,5906
9.3107,4935
9.31547,6486
9.32023,4390
9.32498,5530
9.32975,5300
9.33452,5191
9.33927,5395
9.34403,5190
9.3488,5436
9.35357,5182
9.35832,5206
9.36308,4815
9.36785,5259
9.3726,5398
9.37737,5502
9.38213,5130
9.3869,5240
9.39165,5066
9.39642,5560
9.40118,4602
9.40595,5587
9.4107,5122
9.41547,5075
9.42023,5131
9.42498,5366
9.42975,5748
9.43452,4912
9.43928,5542
9.44403,5620
9.4488,5682
9.45357,5408
9.45832,5818
9.46308,5050
9.46785,5071
9.47262,5440
9.47737,5036
9.48213,5550
9.4869,5410
9.49165,4405
9.49642,5085
9.50118,5078
9.50595,6925
9.5107,5303
9.51547,4913
9.52023,5060
9.52498,5891
9.52975,5691
9.53452,5581
9.53928,6569
9.54403,5283
9.5488,4832
9.55357,4942
9.55832,5541
9.56308,4711
9.56785,5654
9.57262,4876
9.57737,5721
9.58213,5316
9.5869,5567
9.59167,5398
9.59642,4830
9.60118,5539
9.60595,5077
9.6107,6332
9.61547,5042
9.62023,5331
9.625,5778
9.62975,4935
9.63452,5542
9.63928,5333
9.64403,5523
9.6488,5817
9.65357,5121
9.65833,5396
9.66308,5147
9.66785,5558
9.67262,5487
9.67737,4815
9.68213,5531
9.6869,5499
9.69167,5627
9.69642,4516
9.70118,5647
9.70595,5461
9.7107,5579
9.71547,5398
9.72023,5826
9.725,5411
9.72975,5153
9.73452,4591
9.73928,5833
9.74403,5676
9.7488,4963
9.75357,6087
9.75833,5014
9.76308,5470
9.76785,4841
9.77262,5168
9.77738,5335
9.78213,5342
9.7869,5527
9.79167,5364
9.79642,5644
9.80118,5539
9.80595,5614
9.81072,5434
9.81547,5251
9.82023,5640
9.825,6039
9.82975,5357
9.83452,5682
9.83928,4759
9.84405,6088
9.8488,5257
9.85357,5752
9.85833,5764
9.86308,5644
9.86785,5087
9.87262,5236
9.87738,5199
9.88213,5044
9.8869,5490
9.89167,5487
9.89642,4787
9.90118,4891
9.90595,5160
9.91072,5091
9.91547,5381
9.92023,5471
9.925,4944
9.92977,5142
9.93452,5180
9.93928,6576
9.94405,5108
9.9488,5342
9.95357,4873
9.95833,5438
9.9631,5724
9.96785,5093
9.97262,5493
9.97738,5429
9.98213,5694
9.9869,5228
9.99167,5511
9.99643,5218
10.0012,5294
10.006,5143
10.0107,5444
10.0155,5058
10.0202,5300
10.025,4645
10.0298,5592
10.0345,6001
10.0393,5814
10.0441,5431
10.0488,6226
10.0536,5378
10.0583,5626
10.0631,6168
10.0679,5924
10.0726,5158
10.0774,5483
10.0821,4539
10.0869,5448
10.0917,5519
10.0964,5447
10.1012,5623
10.106,5091
10.1107,5317
10.1155,5497
10.1202,5455
10.125,5538
10.1298,5099
10.1345,5326
10.1393,4865
10.1441,5371
10.1488,5266
10.1536,5559
10.1583,4964
10.1631,5912
10.1679,4038
10.1726,6231
10.1774,5752
10.1822,4949
10.1869,4978
10.1917,4838
10.1964,5800
10.2012,5812
10.206,6433
10.2107,5077
10.2155,5238
10.2202,5665
10.225,5659
10.2298,5551
10.2345,5075
10.2393,5634
10.2441,5513
10.2488,5562
10.2536,6175
10.2583,5337
10.2631,5432
10.2679,5443
10.2726,5517
10.2774,5654
10.2822,5316
10.2869,5122
10.2917,5803
10.2964,5172
10.3012,5406
10.306,5247
10.3107,4968
10.3155,4623
10.3202,5598
10.325,5139
10.3298,6080
10.3345,5126
10.3393,5572
10.3441,4637
10.3488,5745
10.3536,5498
10.3583,5350
10.3631,5415
10.3679,5581
10.3726,4863
10.3774,4823
10.3822,5100
10.3869,5656
10.3917,5990
10.3964,5629
10.4012,5300
10.406,4611
10.4107,5168
10.4155,5178
10.4202,5432
10.425,5625
10.4298,5900
10.4345,5053
10.4393,5174
10.4441,5934
10.4488,6374
10.4536,5132
10.4583,5484
10.4631,4719
10.4679,5867
10.4726,5624
10.4774,4968
10.4822,5393
10.4869,4863
10.4917,4695
10.4964,5272
10.5012,5200
10.506,4310
10.5107,4630
10.5155,4853
10.5203,5964
10.525,5190
10.5298,5894
10.5345,5471
10.5393,5152
10.5441,5047
10.5488,5819
10.5536,5693
10.5583,5138
10.5631,5998
10.5679,5501
10.5726,5023
10.5774,5879
10.5822,6133
10.5869,4998
10.5917,4526
10.5964,5369
10.6012,4842
10.606,5273
10.6107,5763
10.6155,5973
10.6203,4655
10.625,5368
10.6298,5605
10.6345,4890
10.6393,5119
10.6441,5671
10.6488,4946
10.6536,5278
10.6583,5229
10.6631,5365
10.6679,5071
10.6726,4961
10.6774,5753
10.6822,4917
10.6869,5523
10.6917,5280
10.6964,5260
10.7012,4856
10.706,5140
10.7107,5733
10.7155,6106
10.7203,4769
10.725,5173
10.7298,5691
10.7345,5863
10.7393,6060
10.7441,4971
10.7488,5671
10.7536,5131
10.7583,4769
10.7631,5547
10.7679,5500
10.7726,5598
10.7774,5260
10.7822,5621
10.7869,5258
10.7917,4968
10.7964,4348
10.8012,5605
10.806,5283
10.8107,5178
10.8155,4850
10.8203,5491
10.825,5878
10.8298,5498
10.8345,4924
10.8393,5452
10.8441,5767
10.8488,5106
10.8536,5325
10.8584,5476
10.8631,4795
10.8679,5176
10.8726,4948
10.8774,5157
10.8822,4849
10.8869,5738
10.8917,4676
10.8964,4691
10.9012,5267
10.906,5305
10.9107,5519
10.9155,5420
10.9203,6173
10.925,5111
10.9298,4863
10.9345,5328
10.9393,5494
10.9441,5440
10.9488,5296
10.9536,5021
10.9584,5113
10.9631,5298
10.9679,4999
10.9726,5620
10.9774,4998
10.9822,5242
10.9869,5119
10.9917,5227
10.9964,5256
11.0012,5588
11.006,5151
11.0107,5123
11.0155,5016
11.0203,5403
11.025,6087
11.0298,5138
11.0345,5275
11.0393,5730
11.0441,5315
11.0488,4862
11.0536,4697
11.0584,4783
11.0631,4673
11.0679,5720
11.0726,5476
11.0774,4599
11.0822,5382
11.0869,5203
11.0917,5979
11.0964,5954
11.1012,6081
11.106,5744
11.1107,4483
11.1155,5703
11.1203,5760
11.125,5350
11.1298,4433
11.1345,5586
11.1393,4344
11.1441,5886
11.1488,5373
11.1536,5685
11.1584,5940
11.1631,5661
11.1679,5545
11.1726,5735
11.1774,5113
11.1822,4847
11.1869,5042
11.1917,5885
11.1965,5827
11.2012,5539
11.206,5420
11.2107,5137
11.2155,5943
11.2203,5150
11.225,4498
11.2298,5164
11.2345,5445
11.2393,4972
11.2441,6006
11.2488,5421
11.2536,5899
11.2584,5523
11.2631,5642
11.2679,4999
11.2726,5278
11.2774,5698
11.2822,5349
11.2869,6248
11.2917,4539
11.2965,5475
11.3012,5180
11.306,5442
11.3107,5281
11.3155,5133
11.3203,5371
11.325,5424
11.3298,5329
11.3345,5712
11.3393,5170
11.3441,5420
11.3488,5213
11.3536,5149
11.3584,5009
11.3631,4708
11.3679,5554
11.3726,5555
11.3774,5641
11.3822,5692
11.3869,5256
11.3917,5992
11.3965,4667
11.4012,5827
11.406,4957
11.4107,4702
11.4155,5052
11.4203,5598
11.425,4816
11.4298,4795
11.4345,5674
11.4393,4775
11.4441,5066
11.4488,5299
11.4536,5519
11.4584,5352
11.4631,4837
11.4679,5204
11.4726,5778
11.4774,5116
11.4822,5863
11.4869,5196
11.4917,4723
11.4965,5110
11.5012,5106
11.506,5875
11.5107,5028
11.5155,5342
11.5203,5598
11.525,4398
11.5298,6770
11.5346,5833
11.5393,6127
11.5441,5370
11.5488,5034
11.5536,5450
11.5584,5392
11.5631,5403
11.5679,5161
11.5726,5201
11.5774,5157
11.5822,5763
11.5869,4735
11.5917,5532
11.5965,5102
11.6012,6212
11.606,5429
11.6107,5728
11.6155,5097
11.6203,5616
11.625,5383
11.6298,5156
11.6346,5552
11.6393,4671
11.6441,5250
11.6488,4862
11.6536,5829
11.6584,5623
11.6631,5548
11.6679,5699
11.6726,4817
11.6774,5579
11.6822,5718
11.6869,5660
11.6917,5194
11.6965,5611
11.7012,4757
11.706,5700
11.7107,4489
11.7155,5377
11.7203,5458
11.725,5055
11.7298,5524
11.7346,4723
11.7393,5908
11.7441,5209
11.7488,5427
11.7536,5528
11.7584,5556
11.7631,5929
11.7679,5088
11.7726,5892
11.7774,6012
11.7822,5538
11.7869,5228
11.7917,5513
11.7965,5875
11.8012,5542
11.806,6145
11.8107,4911
11.8155,4768
11.8203,5519
11.825,4961
11.8298,4506
11.8346,5727
11.8393,4757
11.8441,4553
11.8488,5186
11.8536,5255
11.8584,4728
11.8631,5425
11.8679,3851
11.8727,5131
11.8774,5608
11.8822,4965
11.8869,5583
11.8917,6020
11.8965,5062
11.9012,5066
11.906,4728
11.9107,5974
11.9155,4742
11.9203,5951
11.925,5791
11.9298,5787
11.9346,5746
11.9393,5370
11.9441,6089
11.9488,5173
11.9536,4463
11.9584,5338
11.9631,5118
11.9679,5508
11.9727,5650
11.9774,5305
11.9822,6101
11.9869,4883
11.9917,4636
11.9965,5360
12.0012,5778
12.006,5514
12.0107,5339
12.0155,5822
12.0203,4630
12.025,5105
12.0298,5627
12.0346,5206
12.0393,5079
12.0441,4737
12.0488,5043
12.0536,5443
12.0584,5640
12.0631,5280
12.0679,5036
12.0727,5199
12.0774,4875
12.0822,5325
12.0869,5766
12.0917,5413
12.0965,4921
12.1012,5360
12.106,5151
12.1107,5071
12.1155,5236
12.1203,5250
12.125,4941
12.1298,4699
12.1346,5437
12.1393,5767
12.1441,5052
12.1488,5345
12.1536,5439
12.1584,5037
12.1631,5415
12.1679,5463
12.1727,5666
12.1774,4599
12.1822,5126
12.1869,5326
12.1917,5632
12.1965,5163
12.2012,5264
12.206,4960
12.2108,5337
12.2155,5667
12.2203,5052
12.225,5294
12.2298,5749
12.2346,5312
12.2393,4715
12.2441,5775
12.2488,5018
12.2536,4983
12.2584,5326
12.2631,5228
12.2679,5073
12.2727,5312
12.2774,6170
12.2822,4953
12.2869,4750
12.2917,5161
12.2965,5583
12.3012,5521
12.306,5921
12.3108,5465
12.3155,4980
12.3203,5010
12.325,6024
12.3298,6050
12.3346,5226
12.3393,4605
12.3441,4828
12.3488,5221
12.3536,5812
12.3584,5217
12.3631,5824
12.3679,5104
12.3727,6514
12.3774,5702
12.3822,4970
12.3869,5759
12.3917,5241
12.3965,4929
12.4012,5602
12.406,4905
12.4108,5126
12.4155,5377
12.4203,5321
12.425,4930
12.4298,5120
12.4346,5672
12.4393,5358
12.4441,5329
12.4488,5396
12.4536,4987
12.4584,5815
12.4631,6200
12.4679,4566
12.4727,5447
12.4774,6500
12.4822,5842
12.4869,4869
12.4917,5261
12.4965,5163
12.5012,5112
12.506,5170
12.5108,4527
12.5155,5573
12.5203,5346
12.525,5230
12.5298,5480
12.5346,5247
12.5393,5991
12.5441,5797
12.5489,4207
12.5536,4960
12.5584,5620
12.5631,5697
12.5679,4807
12.5727,5246
12.5774,4695
12.5822,5797
12.5869,5194
12.5917,5811
12.5965,5798
12.6012,6099
12.606,5569
12.6108,5407
12.6155,6141
12.6203,4512
12.625,5280
12.6298,5693
12.6346,5107
12.6393,5250
12.6441,5268
12.6489,5405
12.6536,5090
12.6584,4606
12.6631,5242
12.6679,5075
12.6727,5721
12.6774,5346
12.6822,5491
12.6869,4941
12.6917,5612
12.6965,5683
12.7012,5274
12.706,5195
12.7108,5360
12.7155,5880
12.7203,4940
12.725,4739
12.7298,5560
12.7346,4978
12.7393,5369
12.7441,5505
12.7489,5559
12.7536,5931
12.7584,5260
12.7631,5708
12.7679,5767
12.7727,5225
12.7774,5468
12.7822,5760
12.7869,5940
12.7917,5216
12.7965,5233
12.8012,5275
12.806,4865
12.8108,5481
12.8155,5755
12.8203,4819
12.825,5718
12.8298,5701
12.8346,5321
12.8393,5422
12.8441,5170
12.8489,4998
12.8536,5133
12.8584,6214
12.8631,4678
12.8679,6225
12.8727,5254
12.8774,5163
12.8822,5720
12.887,5413
12.8917,5233
12.8965,5062
12.9012,5370
12.906,5435
12.9108,5280
12.9155,4572
12.9203,5600
12.925,5050
12.9298,5330
12.9346,4685
12.9393,5198
12.9441,4438
12.9489,5154
12.9536,6003
12.9584,5834
12.9631,5149
12.9679,4853
12.9727,5506
12.9774,4954
12.9822,5864
12.987,4800
12.9917,4647
12.9965,5730
13.0012,5811
13.006,5108
13.0108,5746
13.0155,4659
13.0203,4974
13.025,5432
13.0298,5042
13.0346,4578
13.0393,5079
13.0441,4139
13.0489,4942
13.0536,5109
13.0584,4801
13.0631,5163
13.0679,5268
13.0727,5625
13.0774,5771
13.0822,4696
13.087,5307
13.0917,5761
13.0965,5514
13.1012,5842
13.106,4506
13.1108,4918
13.1155,5170
13.1203,4881
13.125,5711
13.1298,6173
13.1346,6495
13.1393,5927
13.1441,5048
13.1489,6007
13.1536,5675
13.1584,5835
13.1631,4942
13.1679,5444
13.1727,5292
13.1774,5202
13.1822,5865
13.187,4846
13.1917,4482
13.1965,4890
13.2012,4379
13.206,5561
13.2108,5540
13.2155,4771
13.2203,5304
13.2251,5098
13.2298,4818
13.2346,4995
13.2393,4950
13.2441,4891
13.2489,5499
13.2536,5454
13.2584,4855
13.2631,5672
13.2679,4958
13.2727,5517
13.2774,4257
13.2822,4622
13.287,5239
13.2917,5332
13.2965,5136
13.3012,5961
13.306,4958
13.3108,5146
13.3155,5438
13.3203,5290
13.3251,5180
13.3298,5834
13.3346,4879
13.3393,5712
13.3441,5978
13.3489,4957
13.3536,5446
13.3584,4943
13.3631,6020
13.3679,5360
13.3727,5239
13.3774,4847
13.3822,5379
13.387,5190
13.3917,5351
13.3965,6107
13.4012,4745
13.406,4737
13.4108,5582
13.4155,5105
13.4203,5026
13.4251,5168
13.4298,4954
13.4346,5420
13.4393,4632
13.4441,5019
13.4489,4620
13.4536,5502
13.4584,5499
13.4631,5658
13.4679,6001
13.4727,4960
13.4774,5850
13.4822,5039
13.487,5529
13.4917,5202
13.4965,5519
13.5012,4420
13.506,5224
13.5108,5486
13.5155,4868
13.5203,4537
13.5251,4882
13.5298,5594
13.5346,5485
13.5393,5718
13.5441,6142
13.5489,4638
13.5536,5661
13.5584,5891
13.5632,5289
13.5679,5433
13.5727,5051
13.5774,5204
13.5822,5962
13.587,4555
13.5917,5313
13.5965,5195
13.6012,4926
13.606,5544
13.6108,5712
13.6155,5617
13.6203,5547
13.6251,5958
13.6298,5214
13.6346,5439
13.6393,5337
13.6441,5171
13.6489,5145
13.6536,5331
13.6584,4887
13.6632,5382
13.6679,5318
13.6727,5064
13.6774,5329
13.6822,4655
13.687,5182
13.6917,5021
13.6965,5566
13.7012,5560
13.706,5489
13.7108,4709
13.7155,5282
13.7203,5464
13.7251,5429
13.7298,4962
13.7346,5494
13.7393,4941
13.7441,4924
13.7489,5724
13.7536,5734
13.7584,4606
13.7632,5586
13.7679,5089
13.7727,5793
13.7774,5143
13.7822,5510
13.787,5245
13.7917,5294
13.7965,4806
13.8012,5895
13.806,5208
13.8108,5143
13.8155,6021
13.8203,5262
13.8251,5189
13.8298,5268
13.8346,5186
13.8393,5441
13.8441,5732
13.8489,5539
13.8536,5016
13.8584,5258
13.8632,4667
13.8679,4299
13.8727,5660
13.8774,5050
13.8822,5710
13.887,5162
13.8917,5531
13.8965,5108
13.9013,4474
13.906,5950
13.9108,5693
13.9155,5629
13.9203,5909
13.9251,4571
13.9298,5355
13.9346,4765
13.9393,5781
13.9441,5281
13.9489,5323
13.9536,5073
13.9584,5249
13.9632,4968
13.9679,4889
13.9727,4481
13.9774,4751
13.9822,4648
13.987,5359
13.9917,5091
13.9965,4919
14.0013,5047
14.006,4969
14.0108,5864
14.0155,5589
14.0203,5804
14.0251,5336
14.0298,5681
14.0346,5306
14.0393,5779
14.0441,5756
14.0489,5268
14.0536,4783
14.0584,5057
14.0632,5603
14.0679,5692
14.0727,4751
14.0774,4920
14.0822,5299
14.087,4523
14.0917,5245
14.0965,5350
14.1013,5040
14.106,6494
14.1108,5025
14.1155,4701
14.1203,4924
14.1251,5345
14.1298,5155
14.1346,5311
14.1393,5913
14.1441,5134
14.1489,5779
14.1536,5129
14.1584,4743
14.1632,5051
14.1679,4825
14.1727,4846
14.1774,4825
14.1822,5917
14.187,5334
14.1917,5644
14.1965,4622
14.2013,5288
14.206,4233
14.2108,5164
14.2155,5187
14.2203,4750
14.2251,5881
14.2298,5414
14.2346,4723
14.2394,5904
14.2441,4658
14.2489,5291
14.2536,5577
14.2584,5492
14.2632,5175
14.2679,5566
14.2727,4837
14.2774,5668
14.2822,6920
14.287,5635
14.2917,5783
14.2965,5461
14.3013,4859
14.306,5223
14.3108,5707
14.3155,4977
14.3203,5411
14.3251,5357
14.3298,5364
14.3346,4724
14.3394,5014
14.3441,5462
14.3489,5477
14.3536,6057
14.3584,5877
14.3632,5212
14.3679,5470
14.3727,5839
14.3774,5123
14.3822,4821
14.387,5216
14.3917,5602
14.3965,5363
14.4013,5924
14.406,4560
14.4108,4991
14.4155,5885
14.4203,5171
14.4251,5229
14.4298,5178
14.4346,4702
14.4394,4959
14.4441,4804
14.4489,6368
14.4536,5079
14.4584,6094
14.4632,5184
14.4679,5576
14.4727,4902
14.4774,5188
14.4822,5595
14.487,5915
14.4917,4970
14.4965,5150
14.5013,5522
14.506,5584
14.5108,5646
14.5155,4886
14.5203,5958
14.5251,5575
14.5298,4563
14.5346,5460
14.5394,5957
14.5441,5056
14.5489,5031
14.5536,5425
14.5584,5251
14.5632,5411
14.5679,4680
14.5727,5598
14.5775,4739
14.5822,5195
14.587,5321
14.5917,5015
14.5965,5446
14.6013,5316
14.606,5537
14.6108,5446
14.6155,5402
14.6203,4669
14.6251,5022
14.6298,5321
14.6346,6165
14.6394,4952
14.6441,5508
14.6489,4673
14.6536,5407
14.6584,5680
14.6632,4916
